0,-0.185
0.008,-0.215
0.016,-0.215
0.023,-0.245
0.031,-0.205
0.039,-0.195
0.047,-0.155
0.055,-0.165
0.062,-0.165
0.07,-0.175
0.078,-0.215
0.086,-0.185
0.094,-0.165
0.102,-0.165
0.109,-0.165
0.117,-0.145
0.125,-0.155
0.133,-0.185
0.141,-0.215
0.148,-0.175
0.156,-0.165
0.164,-0.155
0.172,-0.155
0.18,-0.155
0.188,-0.165
0.195,-0.185
0.203,-0.165
0.211,-0.175
0.219,-0.185
0.227,-0.165
0.234,-0.155
0.242,-0.165
0.25,-0.165
0.258,-0.165
0.266,-0.165
0.273,-0.155
0.281,-0.175
0.289,-0.185
0.297,-0.165
0.305,-0.175
0.312,-0.155
0.32,-0.185
0.328,-0.165
0.336,-0.165
0.344,-0.175
0.352,-0.175
0.359,-0.175
0.367,-0.175
0.375,-0.165
0.383,-0.175
0.391,-0.185
0.398,-0.165
0.406,-0.175
0.414,-0.145
0.422,-0.155
0.43,-0.145
0.438,-0.105
0.445,-0.065
0.453,-0.055
0.461,-0.035
0.469,0.025
0.477,0.045
0.484,0.025
0.492,0.025
0.5,-0.035
0.508,-0.095
0.516,-0.125
0.523,-0.125
0.531,-0.105
0.539,-0.105
0.547,-0.105
0.555,-0.065
0.562,-0.035
0.57,0.305
0.578,0.865
0.586,1.005
0.594,0.055
0.602,-0.395
0.609,-0.325
0.617,-0.105
0.625,-0.055
0.633,-0.065
0.641,-0.065
0.648,-0.075
0.656,-0.055
0.664,-0.055
0.672,-0.065
0.68,-0.045
0.688,-0.035
0.695,-0.055
0.703,-0.045
0.711,-0.045
0.719,-0.025
0.727,-0.025
0.734,-0.015
0.742,-0.025
0.75,-0.015
0.758,0.005
0.766,0.015
0.773,0.035
0.781,0.035
0.789,0.055
0.797,0.085
0.805,0.115
0.812,0.115
0.82,0.145
0.828,0.165
0.836,0.175
0.844,0.195
0.852,0.225
0.859,0.225
0.867,0.235
0.875,0.215
0.883,0.185
0.891,0.145
0.898,0.085
0.906,0.025
0.914,-0.025
0.922,-0.075
0.93,-0.105
0.938,-0.145
0.945,-0.145
0.953,-0.155
0.961,-0.165
0.969,-0.175
0.977,-0.175
0.984,-0.155
0.992,-0.145
1,-0.145
1.008,-0.165
1.016,-0.145
1.023,-0.145
1.031,-0.135
1.039,-0.135
1.047,-0.145
1.055,-0.145
1.062,-0.145
1.07,-0.155
1.078,-0.155
1.086,-0.185
1.094,-0.175
1.102,-0.165
1.109,-0.165
1.117,-0.185
1.125,-0.165
1.133,-0.185
1.141,-0.165
1.148,-0.175
1.156,-0.185
1.164,-0.185
1.172,-0.195
1.18,-0.185
1.188,-0.185
1.195,-0.175
1.203,-0.185
1.211,-0.205
1.219,-0.175
1.227,-0.185
1.234,-0.185
1.242,-0.155
1.25,-0.175
1.258,-0.185
1.266,-0.175
1.273,-0.185
1.281,-0.175
1.289,-0.185
1.297,-0.175
1.305,-0.165
1.312,-0.155
1.32,-0.185
1.328,-0.195
1.336,-0.175
1.344,-0.165
1.352,-0.185
1.359,-0.175
1.367,-0.155
1.375,-0.165
1.383,-0.155
1.391,-0.165
1.398,-0.185
1.406,-0.175
1.414,-0.135
1.422,-0.125
1.43,-0.075
1.438,-0.055
1.445,-0.035
1.453,0.025
1.461,0.005
1.469,0.005
1.477,-0.025
1.484,-0.105
1.492,-0.145
1.5,-0.185
1.508,-0.185
1.516,-0.165
1.523,-0.195
1.531,-0.135
1.539,-0.125
1.547,-0.065
1.555,0.595
1.562,1.365
1.57,0.965
1.578,-0.315
1.586,-0.665
1.594,-0.435
1.602,-0.175
1.609,-0.135
1.617,-0.135
1.625,-0.165
1.633,-0.175
1.641,-0.175
1.648,-0.175
1.656,-0.145
1.664,-0.155
1.672,-0.155
1.68,-0.115
1.688,-0.115
1.695,-0.125
1.703,-0.105
1.711,-0.115
1.719,-0.105
1.727,-0.075
1.734,-0.065
1.742,-0.055
1.75,-0.025
1.758,-0.015
1.766,-0.025
1.773,-0.015
1.781,0.035
1.789,0.045
1.797,0.055
1.805,0.115
1.812,0.115
1.82,0.135
1.828,0.155
1.836,0.145
1.844,0.155
1.852,0.155
1.859,0.115
1.867,0.095
1.875,0.035
1.883,-0.015
1.891,-0.095
1.898,-0.145
1.906,-0.165
1.914,-0.195
1.922,-0.215
1.93,-0.215
1.938,-0.235
1.945,-0.235
1.953,-0.225
1.961,-0.235
1.969,-0.215
1.977,-0.215
1.984,-0.225
1.992,-0.205
2,-0.215
2.008,-0.195
2.016,-0.205
2.023,-0.215
2.031,-0.185
2.039,-0.205
2.047,-0.205
2.055,-0.205
2.062,-0.205
2.07,-0.215
2.078,-0.215
2.086,-0.245
2.094,-0.225
2.102,-0.225
2.109,-0.225
2.117,-0.215
2.125,-0.225
2.133,-0.215
2.141,-0.235
2.148,-0.245
2.156,-0.245
2.164,-0.225
2.172,-0.225
2.18,-0.235
2.188,-0.215
2.195,-0.235
2.203,-0.235
2.211,-0.245
2.219,-0.235
2.227,-0.245
2.234,-0.245
2.242,-0.215
2.25,-0.235
2.258,-0.245
2.266,-0.235
2.273,-0.245
2.281,-0.245
2.289,-0.225
2.297,-0.235
2.305,-0.205
2.312,-0.225
2.32,-0.235
2.328,-0.205
2.336,-0.225
2.344,-0.215
2.352,-0.225
2.359,-0.215
2.367,-0.205
2.375,-0.165
2.383,-0.135
2.391,-0.115
2.398,-0.085
2.406,-0.055
2.414,-0.005
2.422,-0.025
2.43,-0.015
2.438,-0.075
2.445,-0.135
2.453,-0.165
2.461,-0.195
2.469,-0.195
2.477,-0.175
2.484,-0.185
2.492,-0.155
2.5,-0.105
2.508,0.115
2.516,0.755
2.523,1.325
2.531,0.265
2.539,-0.605
2.547,-0.545
2.555,-0.285
2.562,-0.165
2.57,-0.175
2.578,-0.175
2.586,-0.185
2.594,-0.175
2.602,-0.165
2.609,-0.165
2.617,-0.145
2.625,-0.155
2.633,-0.135
2.641,-0.145
2.648,-0.155
2.656,-0.125
2.664,-0.125
2.672,-0.115
2.68,-0.105
2.688,-0.095
2.695,-0.095
2.703,-0.065
2.711,-0.055
2.719,-0.035
2.727,-0.025
2.734,0.005
2.742,0.035
2.75,0.055
2.758,0.075
2.766,0.095
2.773,0.095
2.781,0.135
2.789,0.155
2.797,0.165
2.805,0.175
2.812,0.155
2.82,0.125
2.828,0.075
2.836,0.005
2.844,-0.045
2.852,-0.095
2.859,-0.135
2.867,-0.155
2.875,-0.185
2.883,-0.205
2.891,-0.195
2.898,-0.225
2.906,-0.215
2.914,-0.195
2.922,-0.195
2.93,-0.175
2.938,-0.185
2.945,-0.195
2.953,-0.175
2.961,-0.195
2.969,-0.185
2.977,-0.165
2.984,-0.175
2.992,-0.165
3,-0.175
3.008,-0.185
3.016,-0.185
3.023,-0.195
3.031,-0.185
3.039,-0.185
3.047,-0.195
3.055,-0.195
3.062,-0.205
3.07,-0.205
3.078,-0.195
3.086,-0.225
3.094,-0.195
3.102,-0.205
3.109,-0.205
3.117,-0.195
3.125,-0.205
3.133,-0.195
3.141,-0.205
3.148,-0.215
3.156,-0.185
3.164,-0.205
3.172,-0.215
3.18,-0.165
3.188,-0.205
3.195,-0.195
3.203,-0.165
3.211,-0.215
3.219,-0.205
3.227,-0.185
3.234,-0.185
3.242,-0.175
3.25,-0.185
3.258,-0.175
3.266,-0.185
3.273,-0.185
3.281,-0.165
3.289,-0.185
3.297,-0.185
3.305,-0.165
3.312,-0.175
3.32,-0.165
3.328,-0.175
3.336,-0.145
3.344,-0.105
3.352,-0.055
3.359,-0.065
3.367,-0.015
3.375,0.025
3.383,0.015
3.391,0.005
3.398,-0.055
3.406,-0.085
3.414,-0.145
3.422,-0.185
3.43,-0.155
3.438,-0.155
3.445,-0.165
3.453,-0.135
3.461,-0.115
3.469,0.095
3.477,0.815
3.484,1.595
3.492,0.585
3.5,-0.565
3.508,-0.595
3.516,-0.275
3.523,-0.145
3.531,-0.145
3.539,-0.135
3.547,-0.135
3.555,-0.135
3.562,-0.145
3.57,-0.155
3.578,-0.105
3.586,-0.135
3.594,-0.125
3.602,-0.115
3.609,-0.125
3.617,-0.075
3.625,-0.085
3.633,-0.095
3.641,-0.055
3.648,-0.065
3.656,-0.035
3.664,-0.005
3.672,-0.005
3.68,0.035
3.688,0.045
3.695,0.045
3.703,0.085
3.711,0.105
3.719,0.145
3.727,0.175
3.734,0.185
3.742,0.215
3.75,0.245
3.758,0.245
3.766,0.255
3.773,0.235
3.781,0.205
3.789,0.185
3.797,0.145
3.805,0.085
3.812,0.015
3.82,-0.065
3.828,-0.085
3.836,-0.115
3.844,-0.125
3.852,-0.165
3.859,-0.155
3.867,-0.155
3.875,-0.155
3.883,-0.165
3.891,-0.155
3.898,-0.165
3.906,-0.135
3.914,-0.145
3.922,-0.145
3.93,-0.115
3.938,-0.125
3.945,-0.125
3.953,-0.125
3.961,-0.135
3.969,-0.135
3.977,-0.125
3.984,-0.135
3.992,-0.135
4,-0.125
4.008,-0.135
4.016,-0.155
4.023,-0.155
4.031,-0.155
4.039,-0.165
4.047,-0.165
4.055,-0.135
4.062,-0.135
4.07,-0.155
4.078,-0.165
4.086,-0.165
4.094,-0.135
4.102,-0.155
4.109,-0.145
4.117,-0.125
4.125,-0.145
4.133,-0.135
4.141,-0.165
4.148,-0.185
4.156,-0.115
4.164,-0.135
4.172,-0.155
4.18,-0.135
4.188,-0.195
4.195,-0.115
4.203,-0.095
4.211,-0.135
4.219,-0.105
4.227,-0.055
4.234,-0.085
4.242,-0.065
4.25,-0.055
4.258,-0.055
4.266,-0.065
4.273,-0.055
4.281,-0.055
4.289,-0.005
4.297,0.025
4.305,0.075
4.312,0.055
4.32,0.105
4.328,0.155
4.336,0.135
4.344,0.145
4.352,0.075
4.359,0.015
4.367,-0.035
4.375,-0.065
4.383,-0.025
4.391,-0.025
4.398,-0.055
4.406,-0.035
4.414,0.005
4.422,0.105
4.43,0.715
4.438,1.405
4.445,0.685
4.453,-0.355
4.461,-0.555
4.469,-0.305
4.477,-0.065
4.484,-0.065
4.492,-0.045
4.5,-0.055
4.508,-0.065
4.516,-0.075
4.523,-0.015
4.531,-0.035
4.539,-0.035
4.547,-0.025
4.555,-0.045
4.562,-0.025
4.57,-0.005
4.578,0.005
4.586,0.005
4.594,0.035
4.602,0.005
4.609,0.055
4.617,0.085
4.625,0.095
4.633,0.105
4.641,0.125
4.648,0.145
4.656,0.175
4.664,0.185
4.672,0.225
4.68,0.235
4.688,0.265
4.695,0.285
4.703,0.275
4.711,0.305
4.719,0.315
4.727,0.315
4.734,0.305
4.742,0.285
4.75,0.215
4.758,0.135
4.766,0.095
4.773,0.015
4.781,-0.005
4.789,-0.025
4.797,-0.085
4.805,-0.035
4.812,-0.075
4.82,-0.065
4.828,-0.065
4.836,-0.075
4.844,-0.055
4.852,-0.045
4.859,-0.045
4.867,-0.025
4.875,-0.025
4.883,-0.045
4.891,-0.045
4.898,-0.045
4.906,-0.025
4.914,-0.035
4.922,-0.055
4.93,-0.025
4.938,-0.035
4.945,-0.015
4.953,-0.035
4.961,-0.055
4.969,-0.065
4.977,-0.055
4.984,-0.055
4.992,-0.055
5,-0.035
5.008,-0.045
5.016,-0.045
5.023,-0.065
5.031,-0.065
5.039,-0.055
5.047,-0.035
5.055,-0.045
5.062,-0.035
5.07,-0.025
5.078,-0.015
5.086,-0.055
5.094,-0.035
5.102,-0.035
5.109,-0.055
5.117,-0.035
5.125,-0.025
5.133,-0.065
5.141,-0.045
5.148,-0.035
5.156,-0.025
5.164,-0.025
5.172,-0.055
5.18,-0.025
5.188,-0.035
5.195,-0.015
5.203,-0.035
5.211,-0.035
5.219,-0.025
5.227,-0.045
5.234,-0.045
5.242,-0.025
5.25,0.015
5.258,0.045
5.266,0.075
5.273,0.065
5.281,0.115
5.289,0.155
5.297,0.155
5.305,0.155
5.312,0.115
5.32,0.055
5.328,-0.005
5.336,-0.035
5.344,-0.025
5.352,-0.025
5.359,-0.025
5.367,0.005
5.375,0.025
5.383,0.065
5.391,0.685
5.398,1.375
5.406,1.295
5.414,-0.095
5.422,-0.505
5.43,-0.305
5.438,-0.015
5.445,0.015
5.453,-0.015
5.461,-0.035
5.469,-0.025
5.477,-0.005
5.484,-0.005
5.492,0.005
5.5,0.015
5.508,0.005
5.516,0.005
5.523,0.005
5.531,0.025
5.539,0.045
5.547,0.035
5.555,0.045
5.562,0.065
5.57,0.085
5.578,0.105
5.586,0.105
5.594,0.125
5.602,0.145
5.609,0.145
5.617,0.175
5.625,0.195
5.633,0.225
5.641,0.255
5.648,0.265
5.656,0.285
5.664,0.315
5.672,0.345
5.68,0.345
5.688,0.295
5.695,0.335
5.703,0.315
5.711,0.225
5.719,0.165
5.727,0.135
5.734,0.075
5.742,0.035
5.75,0.025
5.758,-0.025
5.766,-0.035
5.773,-0.065
5.781,-0.045
5.789,-0.035
5.797,-0.045
5.805,-0.035
5.812,-0.035
5.82,-0.035
5.828,-0.015
5.836,-0.005
5.844,0.005
5.852,-0.025
5.859,-0.005
5.867,-0.005
5.875,-0.005
5.883,-0.015
5.891,0.005
5.898,-0.075
5.906,-0.045
5.914,-0.025
5.922,-0.035
5.93,-0.015
5.938,-0.055
5.945,-0.045
5.953,-0.015
5.961,-0.075
5.969,-0.035
5.977,-0.025
5.984,-0.075
5.992,-0.055
6,-0.075
6.008,-0.055
6.016,-0.035
6.023,-0.045
6.031,-0.055
6.039,-0.055
6.047,-0.035
6.055,-0.085
6.062,-0.045
6.07,-0.035
6.078,-0.045
6.086,-0.055
6.094,-0.045
6.102,-0.045
6.109,-0.055
6.117,-0.085
6.125,-0.025
6.133,-0.025
6.141,-0.045
6.148,-0.055
6.156,-0.035
6.164,-0.035
6.172,-0.035
6.18,-0.045
6.188,-0.055
6.195,-0.045
6.203,-0.045
6.211,-0.025
6.219,-0.035
6.227,-0.045
6.234,0.005
6.242,0.065
6.25,0.055
6.258,0.085
6.266,0.185
6.273,0.125
6.281,0.125
6.289,0.085
6.297,0.035
6.305,-0.015
6.312,-0.065
6.32,-0.065
6.328,-0.035
6.336,-0.045
6.344,0.005
6.352,0.025
6.359,0.105
6.367,0.815
6.375,1.515
6.383,0.785
6.391,-0.375
6.398,-0.545
6.406,-0.215
6.414,-0.035
6.422,-0.015
6.43,-0.055
6.438,-0.035
6.445,-0.045
6.453,-0.065
6.461,-0.045
6.469,-0.045
6.477,-0.035
6.484,-0.025
6.492,-0.005
6.5,-0.035
6.508,-0.015
6.516,0.015
6.523,-0.005
6.531,0.025
6.539,0.035
6.547,0.045
6.555,0.075
6.562,0.065
6.57,0.095
6.578,0.135
6.586,0.145
6.594,0.175
6.602,0.195
6.609,0.205
6.617,0.255
6.625,0.265
6.633,0.275
6.641,0.295
6.648,0.295
6.656,0.315
6.664,0.305
6.672,0.265
6.68,0.205
6.688,0.155
6.695,0.115
6.703,0.035
6.711,-0.025
6.719,-0.055
6.727,-0.065
6.734,-0.095
6.742,-0.095
6.75,-0.115
6.758,-0.105
6.766,-0.105
6.773,-0.125
6.781,-0.105
6.789,-0.095
6.797,-0.085
6.805,-0.095
6.812,-0.085
6.82,-0.075
6.828,-0.075
6.836,-0.095
6.844,-0.095
6.852,-0.105
6.859,-0.095
6.867,-0.085
6.875,-0.105
6.883,-0.115
6.891,-0.115
6.898,-0.125
6.906,-0.125
6.914,-0.135
6.922,-0.135
6.93,-0.115
6.938,-0.115
6.945,-0.125
6.953,-0.135
6.961,-0.155
6.969,-0.145
6.977,-0.145
6.984,-0.135
6.992,-0.115
7,-0.125
7.008,-0.145
7.016,-0.135
7.023,-0.145
7.031,-0.125
7.039,-0.145
7.047,-0.145
7.055,-0.135
7.062,-0.135
7.07,-0.125
7.078,-0.125
7.086,-0.125
7.094,-0.115
7.102,-0.125
7.109,-0.135
7.117,-0.125
7.125,-0.115
7.133,-0.115
7.141,-0.115
7.148,-0.115
7.156,-0.105
7.164,-0.115
7.172,-0.115
7.18,-0.095
7.188,-0.085
7.195,-0.105
7.203,-0.105
7.211,-0.105
7.219,-0.075
7.227,-0.005
7.234,-0.015
7.242,0.015
7.25,0.095
7.258,0.105
7.266,0.075
7.273,0.055
7.281,-0.005
7.289,-0.065
7.297,-0.105
7.305,-0.085
7.312,-0.105
7.32,-0.085
7.328,-0.065
7.336,-0.055
7.344,0.005
7.352,0.535
7.359,1.235
7.367,1.195
7.375,-0.035
7.383,-0.555
7.391,-0.415
7.398,-0.145
7.406,-0.065
7.414,-0.095
7.422,-0.095
7.43,-0.065
7.438,-0.065
7.445,-0.065
7.453,-0.065
7.461,-0.105
7.469,-0.075
7.477,-0.065
7.484,-0.055
7.492,-0.025
7.5,-0.055
7.508,-0.045
7.516,-0.005
7.523,-0.005
7.531,0.005
7.539,0.015
7.547,0.035
7.555,0.065
7.562,0.055
7.57,0.095
7.578,0.105
7.586,0.115
7.594,0.155
7.602,0.165
7.609,0.205
7.617,0.225
7.625,0.235
7.633,0.265
7.641,0.255
7.648,0.225
7.656,0.225
7.664,0.195
7.672,0.135
7.68,0.095
7.688,0.035
7.695,-0.045
7.703,-0.085
7.711,-0.145
7.719,-0.135
7.727,-0.135
7.734,-0.145
7.742,-0.125
7.75,-0.115
7.758,-0.105
7.766,-0.125
7.773,-0.135
7.781,-0.105
7.789,-0.085
7.797,-0.095
7.805,-0.065
7.812,-0.065
7.82,-0.065
7.828,-0.085
7.836,-0.055
7.844,-0.055
7.852,-0.055
7.859,-0.065
7.867,-0.045
7.875,-0.065
7.883,-0.075
7.891,-0.065
7.898,-0.085
7.906,-0.085
7.914,-0.095
7.922,-0.105
7.93,-0.065
7.938,-0.075
7.945,-0.095
7.953,-0.095
7.961,-0.105
7.969,-0.115
7.977,-0.095
7.984,-0.095
7.992,-0.085
8,-0.105
8.008,-0.115
8.016,-0.105
8.023,-0.115
8.031,-0.115
8.039,-0.125
8.047,-0.105
8.055,-0.095
8.062,-0.105
8.07,-0.105
8.078,-0.095
8.086,-0.105
8.094,-0.095
8.102,-0.105
8.109,-0.115
8.117,-0.065
8.125,-0.095
8.133,-0.095
8.141,-0.095
8.148,-0.095
8.156,-0.075
8.164,-0.085
8.172,-0.095
8.18,-0.085
8.188,-0.025
8.195,0.015
8.203,0.015
8.211,0.045
8.219,0.105
8.227,0.085
8.234,0.095
8.242,0.025
8.25,-0.015
8.258,-0.065
8.266,-0.095
8.273,-0.125
8.281,-0.075
8.289,-0.095
8.297,-0.065
8.305,-0.025
8.312,0.125
8.32,0.855
8.328,1.625
8.336,0.805
8.344,-0.395
8.352,-0.545
8.359,-0.285
8.367,-0.065
8.375,-0.045
8.383,-0.095
8.391,-0.085
8.398,-0.115
8.406,-0.105
8.414,-0.055
8.422,-0.055
8.43,-0.055
8.438,-0.065
8.445,-0.045
8.453,-0.075
8.461,-0.055
8.469,-0.045
8.477,-0.035
8.484,-0.005
8.492,0.005
8.5,0.015
8.508,0.005
8.516,0.035
8.523,0.055
8.531,0.075
8.539,0.075
8.547,0.105
8.555,0.145
8.562,0.165
8.57,0.175
8.578,0.205
8.586,0.225
8.594,0.265
8.602,0.265
8.609,0.275
8.617,0.265
8.625,0.265
8.633,0.205
8.641,0.175
8.648,0.135
8.656,0.035
8.664,-0.015
8.672,-0.065
8.68,-0.085
8.688,-0.115
8.695,-0.145
8.703,-0.155
8.711,-0.135
8.719,-0.145
8.727,-0.135
8.734,-0.135
8.742,-0.135
8.75,-0.115
8.758,-0.115
8.766,-0.125
8.773,-0.125
8.781,-0.115
8.789,-0.095
8.797,-0.085
8.805,-0.085
8.812,-0.105
8.82,-0.125
8.828,-0.115
8.836,-0.115
8.844,-0.135
8.852,-0.135
8.859,-0.135
8.867,-0.125
8.875,-0.135
8.883,-0.165
8.891,-0.125
8.898,-0.155
8.906,-0.155
8.914,-0.145
8.922,-0.145
8.93,-0.125
8.938,-0.145
8.945,-0.135
8.953,-0.145
8.961,-0.175
8.969,-0.155
8.977,-0.135
8.984,-0.145
8.992,-0.135
9,-0.135
9.008,-0.145
9.016,-0.145
9.023,-0.165
9.031,-0.155
9.039,-0.155
9.047,-0.145
9.055,-0.125
9.062,-0.135
9.07,-0.145
9.078,-0.125
9.086,-0.135
9.094,-0.165
9.102,-0.135
9.109,-0.115
9.117,-0.105
9.125,-0.105
9.133,-0.145
9.141,-0.115
9.148,-0.155
9.156,-0.115
9.164,-0.095
9.172,-0.035
9.18,-0.045
9.188,-0.015
9.195,0.045
9.203,0.095
9.211,0.075
9.219,0.055
9.227,-0.005
9.234,-0.065
9.242,-0.095
9.25,-0.135
9.258,-0.125
9.266,-0.105
9.273,-0.135
9.281,-0.095
9.289,-0.065
9.297,0.045
9.305,0.775
9.312,1.495
9.32,0.855
9.328,-0.405
9.336,-0.605
9.344,-0.325
9.352,-0.085
9.359,-0.085
9.367,-0.105
9.375,-0.125
9.383,-0.095
9.391,-0.105
9.398,-0.105
9.406,-0.095
9.414,-0.075
9.422,-0.075
9.43,-0.055
9.438,-0.075
9.445,-0.065
9.453,-0.055
9.461,-0.035
9.469,-0.025
9.477,-0.005
9.484,-0.005
9.492,0.025
9.5,0.045
9.508,0.045
9.516,0.075
9.523,0.085
9.531,0.095
9.539,0.135
9.547,0.165
9.555,0.195
9.562,0.225
9.57,0.225
9.578,0.235
9.586,0.245
9.594,0.245
9.602,0.255
9.609,0.215
9.617,0.195
9.625,0.155
9.633,0.095
9.641,0.035
9.648,-0.015
9.656,-0.055
9.664,-0.095
9.672,-0.105
9.68,-0.125
9.688,-0.135
9.695,-0.145
9.703,-0.155
9.711,-0.155
9.719,-0.135
9.727,-0.125
9.734,-0.115
9.742,-0.115
9.75,-0.115
9.758,-0.115
9.766,-0.135
9.773,-0.135
9.781,-0.125
9.789,-0.125
9.797,-0.135
9.805,-0.135
9.812,-0.135
9.82,-0.145
9.828,-0.155
9.836,-0.175
9.844,-0.155
9.852,-0.145
9.859,-0.155
9.867,-0.145
9.875,-0.165
9.883,-0.165
9.891,-0.175
9.898,-0.205
9.906,-0.185
9.914,-0.175
9.922,-0.145
9.93,-0.155
9.938,-0.215
9.945,-0.165
9.953,-0.185
9.961,-0.145
9.969,-0.255
9.977,-0.075
9.984,-0.095
9.992,-0.125
10,-0.095
10.008,-0.135
10.016,-0.085
10.023,-0.085
10.031,-0.105
10.039,-0.095
10.047,-0.095
10.055,-0.085
10.062,-0.085
10.07,-0.065
10.078,-0.075
10.086,-0.085
10.094,-0.075
10.102,-0.105
10.109,-0.075
10.117,-0.065
10.125,-0.075
10.133,-0.065
10.141,-0.015
10.148,0.005
10.156,0.005
10.164,0.055
10.172,0.085
10.18,0.115
10.188,0.085
10.195,0.065
10.203,0.005
10.211,-0.105
10.219,-0.115
10.227,-0.105
10.234,-0.115
10.242,-0.105
10.25,-0.075
10.258,-0.085
10.266,-0.015
10.273,0.615
10.281,1.385
10.289,1.065
10.297,-0.275
10.305,-0.595
10.312,-0.385
10.32,-0.135
10.328,-0.095
10.336,-0.095
10.344,-0.105
10.352,-0.095
10.359,-0.105
10.367,-0.085
10.375,-0.075
10.383,-0.085
10.391,-0.075
10.398,-0.095
10.406,-0.095
10.414,-0.065
10.422,-0.055
10.43,-0.015
10.438,-0.015
10.445,-0.005
10.453,0.005
10.461,0.015
10.469,0.035
10.477,0.035
10.484,0.045
10.492,0.085
10.5,0.105
10.508,0.125
10.516,0.155
10.523,0.165
10.531,0.225
10.539,0.245
10.547,0.255
10.555,0.255
10.562,0.245
10.57,0.255
10.578,0.255
10.586,0.195
10.594,0.155
10.602,0.095
10.609,0.025
10.617,-0.025
10.625,-0.085
10.633,-0.105
10.641,-0.125
10.648,-0.135
10.656,-0.165
10.664,-0.125
10.672,-0.135
10.68,-0.105
10.688,-0.105
10.695,-0.145
10.703,-0.115
10.711,-0.105
10.719,-0.105
10.727,-0.115
10.734,-0.115
10.742,-0.095
10.75,-0.105
10.758,-0.095
10.766,-0.105
10.773,-0.105
10.781,-0.105
10.789,-0.135
10.797,-0.135
10.805,-0.145
10.812,-0.115
10.82,-0.095
10.828,-0.115
10.836,-0.125
10.844,-0.125
10.852,-0.125
10.859,-0.125
10.867,-0.135
10.875,-0.125
10.883,-0.125
10.891,-0.135
10.898,-0.125
10.906,-0.105
10.914,-0.115
10.922,-0.115
10.93,-0.105
10.938,-0.105
10.945,-0.115
10.953,-0.115
10.961,-0.125
10.969,-0.105
10.977,-0.115
10.984,-0.105
10.992,-0.085
11,-0.085
11.008,-0.095
11.016,-0.105
11.023,-0.105
11.031,-0.095
11.039,-0.095
11.047,-0.095
11.055,-0.085
11.062,-0.075
11.07,-0.085
11.078,-0.075
11.086,-0.055
11.094,-0.015
11.102,-0.015
11.109,0.015
11.117,0.065
11.125,0.085
11.133,0.045
11.141,0.015
11.148,-0.025
11.156,-0.075
11.164,-0.115
11.172,-0.135
11.18,-0.105
11.188,-0.115
11.195,-0.105
11.203,-0.105
11.211,-0.085
11.219,0.385
11.227,1.055
11.234,1.065
11.242,-0.045
11.25,-0.555
11.258,-0.435
11.266,-0.185
11.273,-0.165
11.281,-0.155
11.289,-0.145
11.297,-0.165
11.305,-0.155
11.312,-0.145
11.32,-0.145
11.328,-0.145
11.336,-0.155
11.344,-0.125
11.352,-0.125
11.359,-0.115
11.367,-0.105
11.375,-0.095
11.383,-0.095
11.391,-0.075
11.398,-0.075
11.406,-0.055
11.414,-0.025
11.422,-0.015
11.43,0.005
11.438,0.025
11.445,0.045
11.453,0.065
11.461,0.065
11.469,0.125
11.477,0.125
11.484,0.175
11.492,0.195
11.5,0.195
11.508,0.195
11.516,0.195
11.523,0.145
11.531,0.125
11.539,0.075
11.547,0.015
11.555,-0.035
11.562,-0.115
11.57,-0.135
11.578,-0.175
11.586,-0.205
11.594,-0.185
11.602,-0.225
11.609,-0.225
11.617,-0.195
11.625,-0.185
11.633,-0.195
11.641,-0.185
11.648,-0.205
11.656,-0.185
11.664,-0.175
11.672,-0.185
11.68,-0.175
11.688,-0.165
11.695,-0.175
11.703,-0.185
11.711,-0.195
11.719,-0.185
11.727,-0.175
11.734,-0.195
11.742,-0.165
11.75,-0.185
11.758,-0.185
11.766,-0.185
11.773,-0.205
11.781,-0.195
11.789,-0.205
11.797,-0.215
11.805,-0.175
11.812,-0.195
11.82,-0.185
11.828,-0.195
11.836,-0.195
11.844,-0.175
11.852,-0.195
11.859,-0.185
11.867,-0.185
11.875,-0.175
11.883,-0.195
11.891,-0.195
11.898,-0.205
11.906,-0.185
11.914,-0.175
11.922,-0.175
11.93,-0.185
11.938,-0.175
11.945,-0.175
11.953,-0.195
11.961,-0.195
11.969,-0.175
11.977,-0.175
11.984,-0.125
11.992,-0.065
12,-0.085
12.008,-0.055
12.016,-0.005
12.023,0.025
12.031,-0.025
12.039,-0.025
12.047,-0.105
12.055,-0.145
12.062,-0.155
12.07,-0.165
12.078,-0.165
12.086,-0.155
12.094,-0.135
12.102,-0.115
12.109,-0.025
12.117,0.605
12.125,1.355
12.133,1.055
12.141,-0.185
12.148,-0.625
12.156,-0.465
12.164,-0.195
12.172,-0.135
12.18,-0.125
12.188,-0.135
12.195,-0.135
12.203,-0.115
12.211,-0.135
12.219,-0.115
12.227,-0.115
12.234,-0.115
12.242,-0.075
12.25,-0.075
12.258,-0.085
12.266,-0.085
12.273,-0.075
12.281,-0.045
12.289,-0.035
12.297,-0.015
12.305,0.015
12.312,0.025
12.32,0.035
12.328,0.055
12.336,0.055
12.344,0.095
12.352,0.115
12.359,0.145
12.367,0.195
12.375,0.195
12.383,0.215
12.391,0.235
12.398,0.195
12.406,0.215
12.414,0.215
12.422,0.175
12.43,0.155
12.438,0.085
12.445,0.025
12.453,-0.035
12.461,-0.085
12.469,-0.085
12.477,-0.125
12.484,-0.115
12.492,-0.115
12.5,-0.135
12.508,-0.125
12.516,-0.135
12.523,-0.115
12.531,-0.115
12.539,-0.115
12.547,-0.095
12.555,-0.085
12.562,-0.075
12.57,-0.085
12.578,-0.075
12.586,-0.075
12.594,-0.065
12.602,-0.075
12.609,-0.085
12.617,-0.065
12.625,-0.055
12.633,-0.085
12.641,-0.095
12.648,-0.105
12.656,-0.095
12.664,-0.085
12.672,-0.095
12.68,-0.085
12.688,-0.085
12.695,-0.085
12.703,-0.115
12.711,-0.095
12.719,-0.095
12.727,-0.105
12.734,-0.115
12.742,-0.075
12.75,-0.095
12.758,-0.095
12.766,-0.105
12.773,-0.105
12.781,-0.105
12.789,-0.085
12.797,-0.095
12.805,-0.085
12.812,-0.085
12.82,-0.095
12.828,-0.085
12.836,-0.095
12.844,-0.095
12.852,-0.075
12.859,-0.075
12.867,-0.025
12.875,0.035
12.883,0.025
12.891,0.055
12.898,0.075
12.906,0.115
12.914,0.095
12.922,0.065
12.93,0.005
12.938,-0.055
12.945,-0.075
12.953,-0.065
12.961,-0.085
12.969,-0.055
12.977,-0.065
12.984,-0.015
12.992,0.155
13,0.885
13.008,1.665
13.016,1.215
13.023,-0.295
13.031,-0.565
13.039,-0.315
13.047,-0.055
13.055,-0.035
13.062,-0.055
13.07,-0.045
13.078,-0.055
13.086,-0.075
13.094,-0.065
13.102,-0.045
13.109,-0.055
13.117,-0.025
13.125,-0.025
13.133,-0.025
13.141,-0.025
13.148,-0.015
13.156,0.005
13.164,0.015
13.172,-0.005
13.18,0.025
13.188,0.045
13.195,0.055
13.203,0.095
13.211,0.085
13.219,0.115
13.227,0.145
13.234,0.175
13.242,0.195
13.25,0.215
13.258,0.225
13.266,0.245
13.273,0.245
13.281,0.265
13.289,0.255
13.297,0.235
13.305,0.225
13.312,0.165
13.32,0.115
13.328,0.055
13.336,-0.005
13.344,-0.025
13.352,-0.075
13.359,-0.095
13.367,-0.095
13.375,-0.125
13.383,-0.125
13.391,-0.115
13.398,-0.125
13.406,-0.105
13.414,-0.095
13.422,-0.095
13.43,-0.085
13.438,-0.085
13.445,-0.065
13.453,-0.055
13.461,-0.085
13.469,-0.055
13.477,-0.075
13.484,-0.065
13.492,-0.055
13.5,-0.085
13.508,-0.065
13.516,-0.095
13.523,-0.105
13.531,-0.085
13.539,-0.105
13.547,-0.105
13.555,-0.095
13.562,-0.105
13.57,-0.115
13.578,-0.105
13.586,-0.125
13.594,-0.105
13.602,-0.125
13.609,-0.125
13.617,-0.105
13.625,-0.125
13.633,-0.135
13.641,-0.135
13.648,-0.135
13.656,-0.115
13.664,-0.115
13.672,-0.115
13.68,-0.115
13.688,-0.105
13.695,-0.125
13.703,-0.125
13.711,-0.125
13.719,-0.115
13.727,-0.115
13.734,-0.125
13.742,-0.095
13.75,-0.065
13.758,-0.015
13.766,-0.015
13.773,0.005
13.781,0.065
13.789,0.075
13.797,0.055
13.805,0.045
13.812,-0.035
13.82,-0.105
13.828,-0.115
13.836,-0.145
13.844,-0.125
13.852,-0.105
13.859,-0.095
13.867,-0.105
13.875,-0.005
13.883,0.585
13.891,1.385
13.898,1.585
13.906,-0.025
13.914,-0.645
13.922,-0.445
13.93,-0.135
13.938,-0.085
13.945,-0.115
13.953,-0.135
13.961,-0.135
13.969,-0.135
13.977,-0.135
13.984,-0.115
13.992,-0.115
14,-0.105
14.008,-0.105
14.016,-0.105
14.023,-0.135
14.031,-0.095
14.039,-0.065
14.047,-0.065
14.055,-0.045
14.062,-0.055
14.07,-0.025
14.078,-0.005
14.086,-0.035
14.094,0.025
14.102,0.025
14.109,0.055
14.117,0.105
14.125,0.115
14.133,0.135
14.141,0.145
14.148,0.145
14.156,0.195
14.164,0.195
14.172,0.185
14.18,0.205
14.188,0.165
14.195,0.125
14.203,0.055
14.211,-0.005
14.219,-0.055
14.227,-0.095
14.234,-0.145
14.242,-0.145
14.25,-0.175
14.258,-0.185
14.266,-0.185
14.273,-0.185
14.281,-0.185
14.289,-0.195
14.297,-0.175
14.305,-0.145
14.312,-0.155
14.32,-0.175
14.328,-0.135
14.336,-0.145
14.344,-0.175
14.352,-0.145
14.359,-0.145
14.367,-0.135
14.375,-0.145
14.383,-0.155
14.391,-0.155
14.398,-0.175
14.406,-0.165
14.414,-0.175
14.422,-0.175
14.43,-0.165
14.438,-0.185
14.445,-0.185
14.453,-0.175
14.461,-0.205
14.469,-0.195
14.477,-0.185
14.484,-0.205
14.492,-0.185
14.5,-0.195
14.508,-0.205
14.516,-0.195
14.523,-0.205
14.531,-0.205
14.539,-0.195
14.547,-0.235
14.555,-0.195
14.562,-0.195
14.57,-0.215
14.578,-0.195
14.586,-0.225
14.594,-0.205
14.602,-0.205
14.609,-0.215
14.617,-0.205
14.625,-0.235
14.633,-0.215
14.641,-0.205
14.648,-0.215
14.656,-0.145
14.664,-0.115
14.672,-0.125
14.68,-0.075
14.688,-0.015
14.695,-0.045
14.703,-0.045
14.711,-0.095
14.719,-0.135
14.727,-0.225
14.734,-0.235
14.742,-0.235
14.75,-0.245
14.758,-0.225
14.766,-0.215
14.773,-0.215
14.781,-0.125
14.789,0.505
14.797,1.335
14.805,1.005
14.812,-0.455
14.82,-0.735
14.828,-0.495
14.836,-0.255
14.844,-0.235
14.852,-0.235
14.859,-0.245
14.867,-0.235
14.875,-0.255
14.883,-0.255
14.891,-0.225
14.898,-0.245
14.906,-0.235
14.914,-0.225
14.922,-0.255
14.93,-0.205
14.938,-0.195
14.945,-0.185
14.953,-0.185
14.961,-0.195
14.969,-0.165
14.977,-0.145
14.984,-0.145
14.992,-0.125
15,-0.105
15.008,-0.085
15.016,-0.055
15.023,-0.055
15.031,-0.015
15.039,0.005
15.047,0.015
15.055,0.035
15.062,0.055
15.07,0.065
15.078,0.075
15.086,0.045
15.094,0.045
15.102,0.025
15.109,-0.035
15.117,-0.095
15.125,-0.165
15.133,-0.225
15.141,-0.235
15.148,-0.275
15.156,-0.305
15.164,-0.305
15.172,-0.315
15.18,-0.305
15.188,-0.305
15.195,-0.315
15.203,-0.295
15.211,-0.295
15.219,-0.285
15.227,-0.285
15.234,-0.295
15.242,-0.265
15.25,-0.285
15.258,-0.265
15.266,-0.265
15.273,-0.275
15.281,-0.285
15.289,-0.295
15.297,-0.295
15.305,-0.275
15.312,-0.275
15.32,-0.295
15.328,-0.305
15.336,-0.325
15.344,-0.305
15.352,-0.295
15.359,-0.305
15.367,-0.295
15.375,-0.285
15.383,-0.315
15.391,-0.305
15.398,-0.305
15.406,-0.295
15.414,-0.305
15.422,-0.295
15.43,-0.305
15.438,-0.295
15.445,-0.295
15.453,-0.285
15.461,-0.305
15.469,-0.295
15.477,-0.285
15.484,-0.285
15.492,-0.295
15.5,-0.275
15.508,-0.275
15.516,-0.295
15.523,-0.295
15.531,-0.285
15.539,-0.285
15.547,-0.285
15.555,-0.265
15.562,-0.285
15.57,-0.275
15.578,-0.275
15.586,-0.275
15.594,-0.255
15.602,-0.215
15.609,-0.185
15.617,-0.175
15.625,-0.145
15.633,-0.085
15.641,-0.065
15.648,-0.095
15.656,-0.085
15.664,-0.165
15.672,-0.235
15.68,-0.275
15.688,-0.285
15.695,-0.275
15.703,-0.255
15.711,-0.275
15.719,-0.245
15.727,-0.205
15.734,0.095
15.742,0.835
15.75,1.335
15.758,0.075
15.766,-0.735
15.773,-0.665
15.781,-0.365
15.789,-0.245
15.797,-0.265
15.805,-0.265
15.812,-0.265
15.82,-0.265
15.828,-0.265
15.836,-0.275
15.844,-0.265
15.852,-0.255
15.859,-0.245
15.867,-0.225
15.875,-0.225
15.883,-0.235
15.891,-0.215
15.898,-0.205
15.906,-0.185
15.914,-0.185
15.922,-0.165
15.93,-0.135
15.938,-0.135
15.945,-0.115
15.953,-0.075
15.961,-0.085
15.969,-0.065
15.977,-0.045
15.984,-0.015
15.992,0.025
16,0.025
16.008,0.035
16.016,0.065
16.023,0.045
16.031,0.065
16.039,0.065
16.047,0.025
16.055,0.005
16.062,-0.055
16.07,-0.115
16.078,-0.155
16.086,-0.215
16.094,-0.235
16.102,-0.265
16.109,-0.285
16.117,-0.265
16.125,-0.275
16.133,-0.295
16.141,-0.285
16.148,-0.275
16.156,-0.255
16.164,-0.265
16.172,-0.255
16.18,-0.235
16.188,-0.235
16.195,-0.245
16.203,-0.245
16.211,-0.245
16.219,-0.245
16.227,-0.245
16.234,-0.235
16.242,-0.225
16.25,-0.255
16.258,-0.235
16.266,-0.245
16.273,-0.265
16.281,-0.245
16.289,-0.245
16.297,-0.245
16.305,-0.235
16.312,-0.245
16.32,-0.245
16.328,-0.245
16.336,-0.265
16.344,-0.245
16.352,-0.245
16.359,-0.255
16.367,-0.215
16.375,-0.215
16.383,-0.235
16.391,-0.225
16.398,-0.245
16.406,-0.235
16.414,-0.225
16.422,-0.245
16.43,-0.215
16.438,-0.215
16.445,-0.205
16.453,-0.225
16.461,-0.215
16.469,-0.195
16.477,-0.195
16.484,-0.195
16.492,-0.185
16.5,-0.185
16.508,-0.175
16.516,-0.175
16.523,-0.175
16.531,-0.155
16.539,-0.155
16.547,-0.135
16.555,-0.085
16.562,-0.075
16.57,-0.055
16.578,-0.005
16.586,0.005
16.594,0.015
16.602,-0.005
16.609,-0.075
16.617,-0.115
16.625,-0.155
16.633,-0.175
16.641,-0.175
16.648,-0.175
16.656,-0.135
16.664,-0.105
16.672,-0.085
16.68,0.325
16.688,1.015
16.695,1.315
16.703,0.095
16.711,-0.605
16.719,-0.495
16.727,-0.235
16.734,-0.165
16.742,-0.145
16.75,-0.155
16.758,-0.145
16.766,-0.155
16.773,-0.175
16.781,-0.155
16.789,-0.145
16.797,-0.145
16.805,-0.125
16.812,-0.125
16.82,-0.125
16.828,-0.115
16.836,-0.105
16.844,-0.085
16.852,-0.075
16.859,-0.055
16.867,-0.025
16.875,-0.035
16.883,-0.015
16.891,-0.005
16.898,0.015
16.906,0.045
16.914,0.045
16.922,0.085
16.93,0.115
16.938,0.125
16.945,0.145
16.953,0.175
16.961,0.165
16.969,0.175
16.977,0.175
16.984,0.145
16.992,0.145
17,0.085
17.008,0.045
17.016,0.005
17.023,-0.085
17.031,-0.085
17.039,-0.115
17.047,-0.145
17.055,-0.145
17.062,-0.165
17.07,-0.165
17.078,-0.155
17.086,-0.185
17.094,-0.155
17.102,-0.145
17.109,-0.125
17.117,-0.115
17.125,-0.115
17.133,-0.125
17.141,-0.125
17.148,-0.135
17.156,-0.105
17.164,-0.105
17.172,-0.105
17.18,-0.095
17.188,-0.115
17.195,-0.125
17.203,-0.135
17.211,-0.125
17.219,-0.125
17.227,-0.135
17.234,-0.135
17.242,-0.105
17.25,-0.135
17.258,-0.145
17.266,-0.125
17.273,-0.135
17.281,-0.125
17.289,-0.125
17.297,-0.125
17.305,-0.105
17.312,-0.135
17.32,-0.125
17.328,-0.115
17.336,-0.125
17.344,-0.105
17.352,-0.115
17.359,-0.115
17.367,-0.085
17.375,-0.105
17.383,-0.105
17.391,-0.095
17.398,-0.115
17.406,-0.115
17.414,-0.105
17.422,-0.075
17.43,-0.065
17.438,-0.095
17.445,-0.075
17.453,-0.095
17.461,-0.105
17.469,-0.075
17.477,-0.065
17.484,-0.055
17.492,-0.015
17.5,0.045
17.508,0.035
17.516,0.065
17.523,0.115
17.531,0.125
17.539,0.135
17.547,0.075
17.555,0.035
17.562,-0.015
17.57,-0.065
17.578,-0.055
17.586,-0.085
17.594,-0.055
17.602,-0.035
17.609,-0.015
17.617,0.035
17.625,0.575
17.633,1.325
17.641,1.485
17.648,0.105
17.656,-0.525
17.664,-0.365
17.672,-0.075
17.68,-0.015
17.688,-0.035
17.695,-0.035
17.703,-0.035
17.711,-0.045
17.719,-0.035
17.727,-0.015
17.734,-0.015
17.742,0.005
17.75,0.005
17.758,0.005
17.766,0.015
17.773,0.005
17.781,0.025
17.789,0.055
17.797,0.065
17.805,0.085
17.812,0.095
17.82,0.125
17.828,0.115
17.836,0.125
17.844,0.155
17.852,0.185
17.859,0.195
17.867,0.245
17.875,0.245
17.883,0.285
17.891,0.305
17.898,0.305
17.906,0.335
17.914,0.325
17.922,0.315
17.93,0.305
17.938,0.295
17.945,0.255
17.953,0.185
17.961,0.105
17.969,0.085
17.977,0.025
17.984,-0.015
17.992,-0.015
18,-0.025
18.008,-0.035
18.016,-0.045
18.023,-0.055
18.031,-0.015
18.039,-0.015
18.047,0.005
18.055,0.025
18.062,0.025
18.07,0.015
18.078,0.025
18.086,0.035
18.094,0.045
18.102,0.075
18.109,0.075
18.117,0.085
18.125,0.085
18.133,0.085
18.141,0.095
18.148,0.095
18.156,0.105
18.164,0.105
18.172,0.125
18.18,0.145
18.188,0.145
18.195,0.155
18.203,0.155
18.211,0.165
18.219,0.175
18.227,0.195
18.234,0.195
18.242,0.205
18.25,0.215
18.258,0.225
18.266,0.225
18.273,0.235
18.281,0.235
18.289,0.245
18.297,0.245
18.305,0.255
18.312,0.265
18.32,0.265
18.328,0.255
18.336,0.265
18.344,0.275
18.352,0.275
18.359,0.265
18.367,0.275
18.375,0.285
18.383,0.275
18.391,0.275
18.398,0.285
18.406,0.285
18.414,0.285
18.422,0.285
18.43,0.295
18.438,0.295
18.445,0.295
18.453,0.305
18.461,0.305
18.469,0.305
18.477,0.295
18.484,0.285
18.492,0.285
18.5,0.275
18.508,0.275
18.516,0.275
18.523,0.275
18.531,0.275
18.539,0.285
18.547,0.305
18.555,0.395
18.562,0.505
18.57,0.385
18.578,0.205
18.586,0.175
18.594,0.215
18.602,0.235
18.609,0.225
18.617,0.215
18.625,0.215
18.633,0.205
18.641,0.195
18.648,0.185
18.656,0.185
18.664,0.175
18.672,0.175
18.68,0.155
18.688,0.155
18.695,0.155
18.703,0.145
18.711,0.145
18.719,0.155
18.727,0.135
18.734,0.145
18.742,0.165
18.75,0.165
18.758,0.165
18.766,0.165
18.773,0.175
18.781,0.195
18.789,0.215
18.797,0.225
18.805,0.255
18.812,0.265
18.82,0.285
18.828,0.285
18.836,0.285
18.844,0.295
18.852,0.295
18.859,0.265
18.867,0.225
18.875,0.185
18.883,0.105
18.891,0.035
18.898,0.005
18.906,-0.015
18.914,-0.035
18.922,-0.055
18.93,-0.055
18.938,-0.075
18.945,-0.085
18.953,-0.065
18.961,-0.075
18.969,-0.065
18.977,-0.055
18.984,-0.065
18.992,-0.045
19,-0.025
19.008,-0.045
19.016,-0.015
19.023,-0.045
19.031,-0.045
19.039,-0.025
19.047,-0.045
19.055,-0.065
19.062,-0.045
19.07,-0.035
19.078,-0.035
19.086,-0.075
19.094,-0.055
19.102,-0.095
19.109,-0.035
19.117,-0.035
19.125,-0.065
19.133,-0.055
19.141,-0.065
19.148,-0.075
19.156,-0.085
19.164,-0.065
19.172,-0.035
19.18,-0.015
19.188,-0.035
19.195,-0.065
19.203,-0.075
19.211,-0.035
19.219,-0.045
19.227,-0.075
19.234,-0.035
19.242,-0.015
19.25,-0.075
19.258,-0.055
19.266,-0.055
19.273,-0.095
19.281,-0.055
19.289,-0.055
19.297,-0.075
19.305,0.005
19.312,-0.025
19.32,-0.045
19.328,-0.005
19.336,0.045
19.344,0.065
19.352,0.075
19.359,0.185
19.367,0.205
19.375,0.145
19.383,0.005
19.391,-0.025
19.398,-0.095
19.406,-0.105
19.414,-0.075
19.422,-0.065
19.43,-0.055
19.438,-0.035
19.445,0.005
19.453,0.315
19.461,1.065
19.469,1.585
19.477,0.345
19.484,-0.585
19.492,-0.395
19.5,-0.185
19.508,-0.075
19.516,-0.095
19.523,-0.105
19.531,-0.075
19.539,-0.095
19.547,-0.025
19.555,-0.065
19.562,-0.075
19.57,-0.075
19.578,-0.085
19.586,-0.085
19.594,-0.035
19.602,-0.025
19.609,-0.025
19.617,-0.005
19.625,-0.005
19.633,-0.005
19.641,0.035
19.648,0.055
19.656,0.035
19.664,0.105
19.672,0.085
19.68,0.135
19.688,0.135
19.695,0.155
19.703,0.155
19.711,0.175
19.719,0.225
19.727,0.245
19.734,0.245
19.742,0.265
19.75,0.305
19.758,0.235
19.766,0.175
19.773,0.125
19.781,0.055
19.789,0.045
19.797,-0.015
19.805,-0.045
19.812,-0.065
19.82,-0.115
19.828,-0.155
19.836,-0.105
19.844,-0.155
19.852,-0.125
19.859,-0.125
19.867,-0.095
19.875,-0.135
19.883,-0.115
19.891,-0.065
19.898,-0.135
19.906,-0.105
19.914,-0.065
19.922,-0.125
19.93,-0.095
19.938,-0.095
19.945,-0.105
19.953,-0.105
19.961,-0.125
19.969,-0.155
19.977,-0.135
19.984,-0.105
19.992,-0.145
20,-0.155
20.008,-0.145
20.016,-0.135
20.023,-0.155
20.031,-0.135
20.039,-0.135
20.047,-0.165
20.055,-0.145
20.062,-0.145
20.07,-0.145
20.078,-0.125
20.086,-0.165
20.094,-0.165
20.102,-0.165
20.109,-0.165
20.117,-0.145
20.125,-0.095
20.133,-0.135
20.141,-0.135
20.148,-0.165
20.156,-0.135
20.164,-0.145
20.172,-0.145
20.18,-0.115
20.188,-0.135
20.195,-0.145
20.203,-0.145
20.211,-0.125
20.219,-0.085
20.227,-0.055
20.234,-0.045
20.242,0.005
20.25,0.055
20.258,0.065
20.266,0.015
20.273,0.075
20.281,-0.025
20.289,-0.075
20.297,-0.115
20.305,-0.145
20.312,-0.115
20.32,-0.115
20.328,-0.125
20.336,-0.055
20.344,-0.085
20.352,0.145
20.359,0.855
20.367,1.455
20.375,0.505
20.383,-0.505
20.391,-0.495
20.398,-0.265
20.406,-0.105
20.414,-0.095
20.422,-0.095
20.43,-0.115
20.438,-0.085
20.445,-0.135
20.453,-0.125
20.461,-0.065
20.469,-0.075
20.477,-0.085
20.484,-0.095
20.492,-0.075
20.5,-0.045
20.508,-0.055
20.516,-0.035
20.523,-0.035
20.531,-0.025
20.539,0.025
20.547,-0.015
20.555,0.065
20.562,0.045
20.57,0.065
20.578,0.115
20.586,0.075
20.594,0.105
20.602,0.215
20.609,0.155
20.617,0.175
20.625,0.185
20.633,0.185
20.641,0.215
20.648,0.205
20.656,0.215
20.664,0.155
20.672,0.155
20.68,0.075
20.688,0.005
20.695,0.015
20.703,-0.105
20.711,-0.125
20.719,-0.145
20.727,-0.115
20.734,-0.155
20.742,-0.185
20.75,-0.165
20.758,-0.135
20.766,-0.115
20.773,-0.125
20.781,-0.135
20.789,-0.145
20.797,-0.065
20.805,-0.125
20.812,-0.125
20.82,-0.115
20.828,-0.085
20.836,-0.145
20.844,-0.155
20.852,-0.125
20.859,-0.115
20.867,-0.135
20.875,-0.165
20.883,-0.135
20.891,-0.145
20.898,-0.185
20.906,-0.155
20.914,-0.185
20.922,-0.175
20.93,-0.145
20.938,-0.155
20.945,-0.165
20.953,-0.175
20.961,-0.155
20.969,-0.185
20.977,-0.145
20.984,-0.185
20.992,-0.175
21,-0.175
21.008,-0.165
21.016,-0.135
21.023,-0.205
21.031,-0.155
21.039,-0.165
21.047,-0.145
21.055,-0.155
21.062,-0.155
21.07,-0.145
21.078,-0.185
21.086,-0.195
21.094,-0.145
21.102,-0.135
21.109,-0.155
21.117,-0.155
21.125,-0.135
21.133,-0.115
21.141,-0.075
21.148,-0.075
21.156,0.005
21.164,0.005
21.172,0.025
21.18,0.045
21.188,0.005
21.195,-0.045
21.203,-0.105
21.211,-0.145
21.219,-0.135
21.227,-0.185
21.234,-0.145
21.242,-0.115
21.25,-0.145
21.258,-0.115
21.266,0.325
21.273,1.065
21.281,1.225
21.289,0.025
21.297,-0.615
21.305,-0.515
21.312,-0.175
21.32,-0.175
21.328,-0.125
21.336,-0.195
21.344,-0.165
21.352,-0.175
21.359,-0.175
21.367,-0.165
21.375,-0.155
21.383,-0.145
21.391,-0.155
21.398,-0.145
21.406,-0.115
21.414,-0.105
21.422,-0.125
21.43,-0.105
21.438,-0.095
21.445,-0.095
21.453,-0.035
21.461,-0.065
21.469,-0.065
21.477,0.015
21.484,-0.015
21.492,0.015
21.5,0.035
21.508,0.045
21.516,0.065
21.523,0.095
21.531,0.085
21.539,0.135
21.547,0.145
21.555,0.155
21.562,0.105
21.57,0.135
21.578,0.095
21.586,0.065
21.594,-0.005
21.602,-0.055
21.609,-0.085
21.617,-0.135
21.625,-0.175
21.633,-0.205
21.641,-0.225
21.648,-0.245
21.656,-0.245
21.664,-0.235
21.672,-0.235
21.68,-0.195
21.688,-0.245
21.695,-0.185
21.703,-0.185
21.711,-0.215
21.719,-0.245
21.727,-0.215
21.734,-0.205
21.742,-0.215
21.75,-0.215
21.758,-0.195
21.766,-0.195
21.773,-0.265
21.781,-0.235
21.789,-0.195
21.797,-0.255
21.805,-0.255
21.812,-0.245
21.82,-0.235
21.828,-0.275
21.836,-0.255
21.844,-0.275
21.852,-0.235
21.859,-0.255
21.867,-0.235
21.875,-0.255
21.883,-0.225
21.891,-0.265
21.898,-0.235
21.906,-0.255
21.914,-0.215
21.922,-0.255
21.93,-0.245
21.938,-0.185
21.945,-0.275
21.953,-0.265
21.961,-0.245
21.969,-0.255
21.977,-0.225
21.984,-0.235
21.992,-0.225
22,-0.225
22.008,-0.215
22.016,-0.255
22.023,-0.245
22.031,-0.255
22.039,-0.255
22.047,-0.235
22.055,-0.235
22.062,-0.225
22.07,-0.225
22.078,-0.155
22.086,-0.145
22.094,-0.145
22.102,-0.075
22.109,-0.045
22.117,-0.045
22.125,-0.075
22.133,-0.125
22.141,-0.245
22.148,-0.265
22.156,-0.255
22.164,-0.235
22.172,-0.265
22.18,-0.245
22.188,-0.205
22.195,-0.185
22.203,0.075
22.211,0.775
22.219,1.215
22.227,0.115
22.234,-0.685
22.242,-0.585
22.25,-0.275
22.258,-0.235
22.266,-0.245
22.273,-0.255
22.281,-0.235
22.289,-0.225
22.297,-0.215
22.305,-0.235
22.312,-0.225
22.32,-0.205
22.328,-0.225
22.336,-0.215
22.344,-0.195
22.352,-0.195
22.359,-0.155
22.367,-0.155
22.375,-0.135
22.383,-0.155
22.391,-0.135
22.398,-0.125
22.406,-0.075
22.414,-0.085
22.422,-0.075
22.43,-0.035
22.438,-0.025
22.445,0.005
22.453,-0.005
22.461,0.015
22.469,0.085
22.477,0.085
22.484,0.065
22.492,0.105
22.5,0.075
22.508,0.065
22.516,0.045
22.523,-0.015
22.531,-0.075
22.539,-0.135
22.547,-0.175
22.555,-0.215
22.562,-0.245
22.57,-0.255
22.578,-0.265
22.586,-0.285
22.594,-0.305
22.602,-0.255
22.609,-0.265
22.617,-0.255
22.625,-0.245
22.633,-0.235
22.641,-0.245
22.648,-0.255
22.656,-0.245
22.664,-0.245
22.672,-0.245
22.68,-0.235
22.688,-0.235
22.695,-0.275
22.703,-0.245
22.711,-0.275
22.719,-0.265
22.727,-0.265
22.734,-0.265
22.742,-0.265
22.75,-0.265
22.758,-0.265
22.766,-0.275
22.773,-0.275
22.781,-0.275
22.789,-0.285
22.797,-0.285
22.805,-0.265
22.812,-0.275
22.82,-0.265
22.828,-0.275
22.836,-0.265
22.844,-0.275
22.852,-0.275
22.859,-0.275
22.867,-0.265
22.875,-0.265
22.883,-0.255
22.891,-0.275
22.898,-0.285
22.906,-0.285
22.914,-0.265
22.922,-0.275
22.93,-0.275
22.938,-0.265
22.945,-0.265
22.953,-0.255
22.961,-0.275
22.969,-0.265
22.977,-0.245
22.984,-0.255
22.992,-0.255
23,-0.235
23.008,-0.185
23.016,-0.155
23.023,-0.165
23.031,-0.095
23.039,-0.045
23.047,-0.065
23.055,-0.045
23.062,-0.115
23.07,-0.205
23.078,-0.265
23.086,-0.285
23.094,-0.265
23.102,-0.255
23.109,-0.265
23.117,-0.245
23.125,-0.205
23.133,-0.095
23.141,0.545
23.148,1.295
23.156,0.765
23.164,-0.455
23.172,-0.735
23.18,-0.515
23.188,-0.265
23.195,-0.245
23.203,-0.265
23.211,-0.265
23.219,-0.265
23.227,-0.255
23.234,-0.245
23.242,-0.235
23.25,-0.235
23.258,-0.245
23.266,-0.235
23.273,-0.235
23.281,-0.215
23.289,-0.205
23.297,-0.185
23.305,-0.185
23.312,-0.155
23.32,-0.155
23.328,-0.145
23.336,-0.145
23.344,-0.125
23.352,-0.085
23.359,-0.085
23.367,-0.055
23.375,-0.025
23.383,-0.005
23.391,0.005
23.398,0.035
23.406,0.025
23.414,0.075
23.422,0.075
23.43,0.075
23.438,0.085
23.445,0.055
23.453,0.015
23.461,-0.005
23.469,-0.075
23.477,-0.135
23.484,-0.195
23.492,-0.225
23.5,-0.245
23.508,-0.265
23.516,-0.295
23.523,-0.285
23.531,-0.275
23.539,-0.275
23.547,-0.285
23.555,-0.265
23.562,-0.275
23.57,-0.255
23.578,-0.245
23.586,-0.255
23.594,-0.255
23.602,-0.245
23.609,-0.265
23.617,-0.265
23.625,-0.245
23.633,-0.245
23.641,-0.235
23.648,-0.275
23.656,-0.265
23.664,-0.255
23.672,-0.275
23.68,-0.275
23.688,-0.265
23.695,-0.285
23.703,-0.275
23.711,-0.265
23.719,-0.275
23.727,-0.285
23.734,-0.295
23.742,-0.265
23.75,-0.275
23.758,-0.285
23.766,-0.275
23.773,-0.265
23.781,-0.255
23.789,-0.265
23.797,-0.295
23.805,-0.265
23.812,-0.255
23.82,-0.265
23.828,-0.265
23.836,-0.265
23.844,-0.275
23.852,-0.255
23.859,-0.265
23.867,-0.245
23.875,-0.245
23.883,-0.255
23.891,-0.245
23.898,-0.255
23.906,-0.245
23.914,-0.235
23.922,-0.195
23.93,-0.115
23.938,-0.125
23.945,-0.105
23.953,-0.045
23.961,-0.045
23.969,-0.055
23.977,-0.075
23.984,-0.145
23.992,-0.195
24,-0.225
24.008,-0.225
24.016,-0.205
24.023,-0.225
24.031,-0.215
24.039,-0.175
24.047,-0.125
24.055,0.365
24.062,1.065
24.07,1.175
24.078,-0.015
24.086,-0.685
24.094,-0.555
24.102,-0.295
24.109,-0.175
24.117,-0.185
24.125,-0.195
24.133,-0.185
24.141,-0.175
24.148,-0.185
24.156,-0.175
24.164,-0.165
24.172,-0.155
24.18,-0.145
24.188,-0.155
24.195,-0.125
24.203,-0.135
24.211,-0.135
24.219,-0.115
24.227,-0.095
24.234,-0.095
24.242,-0.075
24.25,-0.055
24.258,-0.045
24.266,-0.015
24.273,-0.015
24.281,0.005
24.289,0.025
24.297,0.035
24.305,0.095
24.312,0.105
24.32,0.125
24.328,0.125
24.336,0.125
24.344,0.145
24.352,0.145
24.359,0.135
24.367,0.105
24.375,0.095
24.383,0.045
24.391,0.005
24.398,-0.065
24.406,-0.135
24.414,-0.155
24.422,-0.165
24.43,-0.175
24.438,-0.185
24.445,-0.185
24.453,-0.185
24.461,-0.185
24.469,-0.165
24.477,-0.175
24.484,-0.175
24.492,-0.155
24.5,-0.135
24.508,-0.145
24.516,-0.155
24.523,-0.175
24.531,-0.155
24.539,-0.165
24.547,-0.145
24.555,-0.145
24.562,-0.135
24.57,-0.175
24.578,-0.145
24.586,-0.175
24.594,-0.175
24.602,-0.165
24.609,-0.165
24.617,-0.165
24.625,-0.175
24.633,-0.175
24.641,-0.195
24.648,-0.185
24.656,-0.175
24.664,-0.175
24.672,-0.175
24.68,-0.155
24.688,-0.175
24.695,-0.155
24.703,-0.165
24.711,-0.185
24.719,-0.175
24.727,-0.175
24.734,-0.185
24.742,-0.165
24.75,-0.145
24.758,-0.135
24.766,-0.165
24.773,-0.185
24.781,-0.175
24.789,-0.175
24.797,-0.185
24.805,-0.145
24.812,-0.125
24.82,-0.165
24.828,-0.165
24.836,-0.185
24.844,-0.145
24.852,-0.145
24.859,-0.155
24.867,-0.095
24.875,-0.045
24.883,-0.055
24.891,-0.005
24.898,0.035
24.906,0.055
24.914,0.035
24.922,-0.035
24.93,-0.055
24.938,-0.135
24.945,-0.175
24.953,-0.145
24.961,-0.165
24.969,-0.125
24.977,-0.135
24.984,-0.125
24.992,-0.055
25,0.535
25.008,1.305
25.016,1.075
25.023,-0.215
25.031,-0.635
25.039,-0.425
25.047,-0.165
25.055,-0.115
25.062,-0.125
25.07,-0.145
25.078,-0.135
25.086,-0.155
25.094,-0.135
25.102,-0.125
25.109,-0.125
25.117,-0.105
25.125,-0.125
25.133,-0.095
25.141,-0.095
25.148,-0.085
25.156,-0.085
25.164,-0.055
25.172,-0.055
25.18,-0.025
25.188,-0.005
25.195,0.035
25.203,0.005
25.211,0.055
25.219,0.085
25.227,0.145
25.234,0.115
25.242,0.095
25.25,0.125
25.258,0.155
25.266,0.195
25.273,0.205
25.281,0.225
25.289,0.265
25.297,0.235
25.305,0.235
25.312,0.215
25.32,0.125
25.328,0.085
25.336,0.005
25.344,-0.015
25.352,-0.085
25.359,-0.095
25.367,-0.105
25.375,-0.105
25.383,-0.155
25.391,-0.155
25.398,-0.145
25.406,-0.145
25.414,-0.125
25.422,-0.115
25.43,-0.105
25.438,-0.095
25.445,-0.105
25.453,-0.105
25.461,-0.095
25.469,-0.095
25.477,-0.085
25.484,-0.085
25.492,-0.085
25.5,-0.115
25.508,-0.105
25.516,-0.115
25.523,-0.125
25.531,-0.105
25.539,-0.115
25.547,-0.115
25.555,-0.115
25.562,-0.105
25.57,-0.125
25.578,-0.125
25.586,-0.145
25.594,-0.115
25.602,-0.135
25.609,-0.125
25.617,-0.115
25.625,-0.115
25.633,-0.125
25.641,-0.125
25.648,-0.135
25.656,-0.135
25.664,-0.125
25.672,-0.105
25.68,-0.105
25.688,-0.115
25.695,-0.125
25.703,-0.125
25.711,-0.125
25.719,-0.125
25.727,-0.115
25.734,-0.115
25.742,-0.115
25.75,-0.095
25.758,-0.105
25.766,-0.125
25.773,-0.105
25.781,-0.095
25.789,-0.095
25.797,-0.095
25.805,-0.075
25.812,-0.085
25.82,-0.045
25.828,0.005
25.836,0.005
25.844,0.045
25.852,0.105
25.859,0.125
25.867,0.095
25.875,0.095
25.883,-0.005
25.891,-0.035
25.898,-0.085
25.906,-0.095
25.914,-0.075
25.922,-0.075
25.93,-0.065
25.938,-0.025
25.945,-0.025
25.953,0.295
25.961,1.035
25.969,1.565
25.977,0.375
25.984,-0.485
25.992,-0.395
26,-0.125
26.008,-0.035
26.016,0.015
26.023,-0.025
26.031,-0.045
26.039,-0.045
26.047,-0.045
26.055,-0.015
26.062,-0.005
26.07,-0.015
26.078,0.005
26.086,-0.005
26.094,0.025
26.102,0.025
26.109,0.035
26.117,0.055
26.125,0.075
26.133,0.085
26.141,0.075
26.148,0.095
26.156,0.125
26.164,0.135
26.172,0.165
26.18,0.195
26.188,0.215
26.195,0.225
26.203,0.265
26.211,0.275
26.219,0.305
26.227,0.315
26.234,0.335
26.242,0.335
26.25,0.355
26.258,0.315
26.266,0.275
26.273,0.205
26.281,0.155
26.289,0.105
26.297,0.055
26.305,0.025
26.312,-0.015
26.32,0.005
26.328,-0.035
26.336,-0.055
26.344,-0.005
26.352,-0.045
26.359,0.015
26.367,-0.015
26.375,-0.025
26.383,-0.005
26.391,0.005
26.398,-0.005
26.406,0.015
26.414,0.015
26.422,0.025
26.43,0.025
26.438,0.035
26.445,0.035
26.453,0.015
26.461,-0.005
26.469,0.015
26.477,0.015
26.484,0.005
26.492,0.005
26.5,0.005
26.508,0.025
26.516,0.015
26.523,-0.015
26.531,0.005
26.539,0.015
26.547,0.005
26.555,0.055
26.562,0.025
26.57,-0.015
26.578,0.015
26.586,-0.005
26.594,0.025
26.602,0.015
26.609,0.015
26.617,0.025
26.625,0.025
26.633,0.055
26.641,0.035
26.648,0.015
26.656,0.015
26.664,0.035
26.672,0.045
26.68,0.035
26.688,0.055
26.695,0.065
26.703,0.045
26.711,0.035
26.719,0.045
26.727,0.065
26.734,0.075
26.742,0.085
26.75,0.065
26.758,0.095
26.766,0.145
26.773,0.145
26.781,0.175
26.789,0.245
26.797,0.265
26.805,0.255
26.812,0.265
26.82,0.205
26.828,0.125
26.836,0.075
26.844,0.075
26.852,0.055
26.859,0.085
26.867,0.115
26.875,0.115
26.883,0.165
26.891,0.605
26.898,1.325
26.906,1.695
26.914,0.435
26.922,-0.385
26.93,-0.255
26.938,0.035
26.945,0.105
26.953,0.115
26.961,0.095
26.969,0.105
26.977,0.095
26.984,0.115
26.992,0.135
27,0.135
27.008,0.145
27.016,0.135
27.023,0.125
27.031,0.155
27.039,0.155
27.047,0.175
27.055,0.185
27.062,0.215
27.07,0.215
27.078,0.245
27.086,0.255
27.094,0.255
27.102,0.275
27.109,0.315
27.117,0.335
27.125,0.355
27.133,0.365
27.141,0.405
27.148,0.425
27.156,0.485
27.164,0.405
27.172,0.475
27.18,0.465
27.188,0.455
27.195,0.445
27.203,0.385
27.211,0.345
27.219,0.315
27.227,0.265
27.234,0.195
27.242,0.145
27.25,0.075
27.258,0.115
27.266,0.085
27.273,0.055
27.281,0.085
27.289,0.105
27.297,0.095
27.305,0.115
27.312,0.105
27.32,0.105
27.328,0.105
27.336,0.075
27.344,0.115
27.352,0.125
27.359,0.135
27.367,0.115
27.375,0.115
27.383,0.095
27.391,0.095
27.398,0.085
27.406,0.095
27.414,0.105
27.422,0.095
27.43,0.115
27.438,0.095
27.445,0.085
27.453,0.095
27.461,0.075
27.469,0.085
27.477,0.115
27.484,0.095
27.492,0.095
27.5,0.115
27.508,0.085
27.516,0.105
27.523,0.095
27.531,0.115
27.539,0.125
27.547,0.125
27.555,0.125
27.562,0.105
27.57,0.125
27.578,0.115
27.586,0.115
27.594,0.115
27.602,0.135
27.609,0.135
27.617,0.135
27.625,0.155
27.633,0.135
27.641,0.125
27.648,0.115
27.656,0.145
27.664,0.135
27.672,0.135
27.68,0.145
27.688,0.145
27.695,0.145
27.703,0.155
27.711,0.195
27.719,0.195
27.727,0.225
27.734,0.275
27.742,0.305
27.75,0.275
27.758,0.235
27.766,0.185
27.773,0.145
27.781,0.125
27.789,0.105
27.797,0.095
27.805,0.095
27.812,0.115
27.82,0.115
27.828,0.145
27.836,0.485
27.844,1.175
27.852,1.565
27.859,0.435
27.867,-0.305
27.875,-0.265
27.883,0.025
27.891,0.085
27.898,0.075
27.906,0.075
27.914,0.085
27.922,0.075
27.93,0.075
27.938,0.085
27.945,0.095
27.953,0.085
27.961,0.095
27.969,0.105
27.977,0.085
27.984,0.095
27.992,0.135
28,0.125
28.008,0.145
28.016,0.155
28.023,0.155
28.031,0.175
28.039,0.205
28.047,0.205
28.055,0.245
28.062,0.255
28.07,0.275
28.078,0.315
28.086,0.315
28.094,0.355
28.102,0.365
28.109,0.365
28.117,0.425
28.125,0.425
28.133,0.395
28.141,0.355
28.148,0.315
28.156,0.305
28.164,0.215
28.172,0.145
28.18,0.115
28.188,0.065
28.195,0.035
28.203,0.005
28.211,-0.005
28.219,0.005
28.227,-0.005
28.234,-0.015
28.242,0.025
28.25,0.025
28.258,0.015
28.266,0.025
28.273,0.005
28.281,0.025
28.289,0.035
28.297,0.015
28.305,0.045
28.312,0.015
28.32,0.025
28.328,0.015
28.336,-0.005
28.344,0.015
28.352,0.005
28.359,-0.015
28.367,0.005
28.375,-0.015
28.383,-0.025
28.391,-0.025
28.398,-0.025
28.406,-0.035
28.414,-0.035
28.422,-0.035
28.43,-0.025
28.438,-0.025
28.445,-0.035
28.453,-0.025
28.461,-0.045
28.469,-0.045
28.477,-0.045
28.484,-0.035
28.492,-0.025
28.5,-0.035
28.508,-0.035
28.516,-0.035
28.523,-0.055
28.531,-0.045
28.539,-0.035
28.547,-0.045
28.555,-0.015
28.562,-0.025
28.57,-0.035
28.578,-0.035
28.586,-0.045
28.594,-0.045
28.602,-0.045
28.609,-0.025
28.617,-0.025
28.625,-0.025
28.633,-0.025
28.641,0.005
28.648,0.025
28.656,0.025
28.664,0.055
28.672,0.115
28.68,0.155
28.688,0.125
28.695,0.105
28.703,0.025
28.711,-0.025
28.719,-0.055
28.727,-0.075
28.734,-0.065
28.742,-0.045
28.75,-0.055
28.758,-0.035
28.766,-0.015
28.773,0.475
28.781,1.165
28.789,1.375
28.797,0.165
28.805,-0.475
28.812,-0.375
28.82,-0.125
28.828,-0.055
28.836,-0.085
28.844,-0.055
28.852,-0.075
28.859,-0.065
28.867,-0.045
28.875,-0.055
28.883,-0.055
28.891,-0.025
28.898,-0.025
28.906,-0.015
28.914,-0.005
28.922,-0.015
28.93,0.005
28.938,0.015
28.945,0.025
28.953,0.035
28.961,0.025
28.969,0.055
28.977,0.085
28.984,0.085
28.992,0.125
29,0.135
29.008,0.155
29.016,0.165
29.023,0.175
29.031,0.215
29.039,0.225
29.047,0.235
29.055,0.265
29.062,0.265
29.07,0.275
29.078,0.255
29.086,0.195
29.094,0.185
29.102,0.115
29.109,0.055
29.117,0.025
29.125,-0.015
29.133,-0.055
29.141,-0.095
29.148,-0.115
29.156,-0.115
29.164,-0.105
29.172,-0.095
29.18,-0.095
29.188,-0.085
29.195,-0.105
29.203,-0.095
29.211,-0.105
29.219,-0.085
29.227,-0.085
29.234,-0.075
29.242,-0.085
29.25,-0.075
29.258,-0.095
29.266,-0.085
29.273,-0.085
29.281,-0.085
29.289,-0.065
29.297,-0.075
29.305,-0.075
29.312,-0.085
29.32,-0.085
29.328,-0.085
29.336,-0.105
29.344,-0.085
29.352,-0.075
29.359,-0.085
29.367,-0.075
29.375,-0.065
29.383,-0.085
29.391,-0.075
29.398,-0.095
29.406,-0.095
29.414,-0.085
29.422,-0.095
29.43,-0.095
29.438,-0.095
29.445,-0.085
29.453,-0.085
29.461,-0.115
29.469,-0.095
29.477,-0.085
29.484,-0.105
29.492,-0.095
29.5,-0.105
29.508,-0.105
29.516,-0.095
29.523,-0.115
29.531,-0.115
29.539,-0.095
29.547,-0.105
29.555,-0.085
29.562,-0.105
29.57,-0.065
29.578,-0.015
29.586,-0.035
29.594,0.025
29.602,0.075
29.609,0.045
29.617,0.055
29.625,0.005
29.633,-0.055
29.641,-0.115
29.648,-0.135
29.656,-0.125
29.664,-0.125
29.672,-0.115
29.68,-0.075
29.688,-0.075
29.695,0.015
29.703,0.605
29.711,1.275
29.719,0.915
29.727,-0.205
29.734,-0.515
29.742,-0.375
29.75,-0.165
29.758,-0.115
29.766,-0.135
29.773,-0.155
29.781,-0.125
29.789,-0.125
29.797,-0.135
29.805,-0.105
29.812,-0.115
29.82,-0.115
29.828,-0.115
29.836,-0.115
29.844,-0.095
29.852,-0.095
29.859,-0.085
29.867,-0.075
29.875,-0.055
29.883,-0.055
29.891,-0.045
29.898,-0.025
29.906,-0.015
29.914,0.005
29.922,0.025
29.93,0.045
29.938,0.065
29.945,0.065
29.953,0.095
29.961,0.105
29.969,0.155
29.977,0.145
29.984,0.135
29.992,0.165
30,0.165
30.008,0.145
30.016,0.125
30.023,0.065
30.031,0.025
30.039,-0.015
30.047,-0.065
30.055,-0.075
30.062,-0.115
30.07,-0.135
30.078,-0.155
30.086,-0.175
30.094,-0.155
30.102,-0.165
30.109,-0.165
30.117,-0.145
30.125,-0.135
30.133,-0.135
30.141,-0.145
30.148,-0.155
30.156,-0.125
30.164,-0.115
30.172,-0.125
30.18,-0.115
30.188,-0.105
30.195,-0.135
30.203,-0.135
30.211,-0.155
30.219,-0.135
30.227,-0.125
30.234,-0.135
30.242,-0.135
30.25,-0.145
30.258,-0.135
30.266,-0.145
30.273,-0.165
30.281,-0.155
30.289,-0.145
30.297,-0.165
30.305,-0.155
30.312,-0.155
30.32,-0.165
30.328,-0.165
30.336,-0.175
30.344,-0.155
30.352,-0.155
30.359,-0.185
30.367,-0.155
30.375,-0.175
30.383,-0.175
30.391,-0.155
30.398,-0.185
30.406,-0.175
30.414,-0.185
30.422,-0.175
30.43,-0.155
30.438,-0.165
30.445,-0.175
30.453,-0.175
30.461,-0.195
30.469,-0.185
30.477,-0.175
30.484,-0.185
30.492,-0.175
30.5,-0.155
30.508,-0.115
30.516,-0.085
30.523,-0.115
30.531,-0.045
30.539,0.005
30.547,-0.015
30.555,-0.015
30.562,-0.085
30.57,-0.115
30.578,-0.145
30.586,-0.205
30.594,-0.205
30.602,-0.195
30.609,-0.185
30.617,-0.155
30.625,-0.145
30.633,0.075
30.641,0.705
30.648,1.325
30.656,0.525
30.664,-0.475
30.672,-0.575
30.68,-0.325
30.688,-0.215
30.695,-0.205
30.703,-0.205
30.711,-0.215
30.719,-0.205
30.727,-0.195
30.734,-0.215
30.742,-0.185
30.75,-0.195
30.758,-0.195
30.766,-0.185
30.773,-0.195
30.781,-0.185
30.789,-0.145
30.797,-0.135
30.805,-0.115
30.812,-0.115
30.82,-0.105
30.828,-0.085
30.836,-0.085
30.844,-0.065
30.852,-0.045
30.859,-0.035
30.867,-0.015
30.875,0.005
30.883,0.045
30.891,0.055
30.898,0.065
30.906,0.085
30.914,0.105
30.922,0.115
30.93,0.115
30.938,0.105
30.945,0.095
30.953,0.045
30.961,0.005
30.969,-0.065
30.977,-0.105
30.984,-0.145
30.992,-0.185
31,-0.205
31.008,-0.215
31.016,-0.225
31.023,-0.245
31.031,-0.235
31.039,-0.225
31.047,-0.225
31.055,-0.215
31.062,-0.225
31.07,-0.215
31.078,-0.195
31.086,-0.225
31.094,-0.205
31.102,-0.205
31.109,-0.215
31.117,-0.205
31.125,-0.205
31.133,-0.205
31.141,-0.215
31.148,-0.235
31.156,-0.235
31.164,-0.235
31.172,-0.245
31.18,-0.245
31.188,-0.265
31.195,-0.265
31.203,-0.265
31.211,-0.275
31.219,-0.275
31.227,-0.275
31.234,-0.285
31.242,-0.285
31.25,-0.275
31.258,-0.305
31.266,-0.305
31.273,-0.305
31.281,-0.295
31.289,-0.305
31.297,-0.295
31.305,-0.285
31.312,-0.305
31.32,-0.305
31.328,-0.305
31.336,-0.315
31.344,-0.305
31.352,-0.315
31.359,-0.315
31.367,-0.295
31.375,-0.315
31.383,-0.325
31.391,-0.315
31.398,-0.315
31.406,-0.315
31.414,-0.305
31.422,-0.315
31.43,-0.315
31.438,-0.285
31.445,-0.265
31.453,-0.245
31.461,-0.255
31.469,-0.195
31.477,-0.155
31.484,-0.185
31.492,-0.165
31.5,-0.235
31.508,-0.295
31.516,-0.345
31.523,-0.365
31.531,-0.355
31.539,-0.335
31.547,-0.335
31.555,-0.315
31.562,-0.285
31.57,-0.055
31.578,0.545
31.586,1.125
31.594,0.295
31.602,-0.615
31.609,-0.685
31.617,-0.455
31.625,-0.325
31.633,-0.325
31.641,-0.325
31.648,-0.345
31.656,-0.335
31.664,-0.325
31.672,-0.325
31.68,-0.315
31.688,-0.315
31.695,-0.315
31.703,-0.315
31.711,-0.325
31.719,-0.295
31.727,-0.285
31.734,-0.285
31.742,-0.265
31.75,-0.265
31.758,-0.255
31.766,-0.245
31.773,-0.245
31.781,-0.225
31.789,-0.205
31.797,-0.185
31.805,-0.155
31.812,-0.135
31.82,-0.145
31.828,-0.125
31.836,-0.095
31.844,-0.065
31.852,-0.055
31.859,-0.055
31.867,-0.045
31.875,-0.045
31.883,-0.085
31.891,-0.115
31.898,-0.165
31.906,-0.215
31.914,-0.255
31.922,-0.295
31.93,-0.325
31.938,-0.355
31.945,-0.375
31.953,-0.385
31.961,-0.385
31.969,-0.385
31.977,-0.375
31.984,-0.385
31.992,-0.375
32,-0.365
32.008,-0.365
32.016,-0.365
32.023,-0.355
32.031,-0.345
32.039,-0.355
32.047,-0.365
32.055,-0.345
32.062,-0.355
32.07,-0.375
32.078,-0.365
32.086,-0.375
32.094,-0.375
32.102,-0.365
32.109,-0.385
32.117,-0.385
32.125,-0.385
32.133,-0.385
32.141,-0.395
32.148,-0.425
32.156,-0.405
32.164,-0.395
32.172,-0.405
32.18,-0.395
32.188,-0.405
32.195,-0.405
32.203,-0.415
32.211,-0.415
32.219,-0.405
32.227,-0.405
32.234,-0.415
32.242,-0.395
32.25,-0.405
32.258,-0.395
32.266,-0.395
32.273,-0.395
32.281,-0.385
32.289,-0.385
32.297,-0.385
32.305,-0.365
32.312,-0.375
32.32,-0.385
32.328,-0.375
32.336,-0.375
32.344,-0.365
32.352,-0.365
32.359,-0.355
32.367,-0.315
32.375,-0.275
32.383,-0.275
32.391,-0.235
32.398,-0.205
32.406,-0.215
32.414,-0.215
32.422,-0.265
32.43,-0.305
32.438,-0.345
32.445,-0.365
32.453,-0.365
32.461,-0.365
32.469,-0.345
32.477,-0.315
32.484,-0.295
32.492,0.005
32.5,0.605
32.508,0.965
32.516,0.065
32.523,-0.645
32.531,-0.625
32.539,-0.435
32.547,-0.325
32.555,-0.305
32.562,-0.295
32.57,-0.305
32.578,-0.295
32.586,-0.305
32.594,-0.285
32.602,-0.285
32.609,-0.265
32.617,-0.245
32.625,-0.235
32.633,-0.255
32.641,-0.235
32.648,-0.225
32.656,-0.225
32.664,-0.215
32.672,-0.195
32.68,-0.175
32.688,-0.145
32.695,-0.145
32.703,-0.125
32.711,-0.125
32.719,-0.105
32.727,-0.085
32.734,-0.055
32.742,-0.045
32.75,-0.025
32.758,-0.005
32.766,0.015
32.773,0.005
32.781,0.015
32.789,0.015
32.797,0.015
32.805,0.005
32.812,-0.015
32.82,-0.065
32.828,-0.095
32.836,-0.145
32.844,-0.165
32.852,-0.185
32.859,-0.205
32.867,-0.215
32.875,-0.215
32.883,-0.205
32.891,-0.225
32.898,-0.215
32.906,-0.215
32.914,-0.205
32.922,-0.185
32.93,-0.205
32.938,-0.185
32.945,-0.185
32.953,-0.175
32.961,-0.175
32.969,-0.185
32.977,-0.185
32.984,-0.195
32.992,-0.185
33,-0.185
33.008,-0.185
33.016,-0.205
33.023,-0.215
33.031,-0.215
33.039,-0.215
33.047,-0.235
33.055,-0.225
33.062,-0.245
33.07,-0.225
33.078,-0.235
33.086,-0.265
33.094,-0.255
33.102,-0.245
33.109,-0.255
33.117,-0.255
33.125,-0.245
33.133,-0.265
33.141,-0.265
33.148,-0.275
33.156,-0.265
33.164,-0.265
33.172,-0.255
33.18,-0.265
33.188,-0.275
33.195,-0.265
33.203,-0.265
33.211,-0.275
33.219,-0.275
33.227,-0.245
33.234,-0.255
33.242,-0.265
33.25,-0.265
33.258,-0.245
33.266,-0.245
33.273,-0.255
33.281,-0.245
33.289,-0.245
33.297,-0.245
33.305,-0.225
33.312,-0.175
33.32,-0.175
33.328,-0.155
33.336,-0.135
33.344,-0.065
33.352,-0.075
33.359,-0.085
33.367,-0.145
33.375,-0.175
33.383,-0.205
33.391,-0.245
33.398,-0.225
33.406,-0.235
33.414,-0.215
33.422,-0.215
33.43,-0.195
33.438,-0.135
33.445,0.375
33.453,1.015
33.461,0.775
33.469,-0.335
33.477,-0.575
33.484,-0.395
33.492,-0.215
33.5,-0.215
33.508,-0.215
33.516,-0.225
33.523,-0.235
33.531,-0.215
33.539,-0.205
33.547,-0.205
33.555,-0.175
33.562,-0.185
33.57,-0.185
33.578,-0.185
33.586,-0.175
33.594,-0.155
33.602,-0.145
33.609,-0.125
33.617,-0.105
33.625,-0.095
33.633,-0.075
33.641,-0.065
33.648,-0.055
33.656,-0.055
33.664,-0.025
33.672,-0.005
33.68,0.035
33.688,0.075
33.695,0.085
33.703,0.105
33.711,0.105
33.719,0.135
33.727,0.145
33.734,0.135
33.742,0.145
33.75,0.115
33.758,0.055
33.766,-0.005
33.773,-0.055
33.781,-0.105
33.789,-0.135
33.797,-0.155
33.805,-0.185
33.812,-0.205
33.82,-0.205
33.828,-0.225
33.836,-0.235
33.844,-0.225
33.852,-0.225
33.859,-0.215
33.867,-0.195
33.875,-0.205
33.883,-0.205
33.891,-0.195
33.898,-0.195
33.906,-0.195
33.914,-0.185
33.922,-0.185
33.93,-0.175
33.938,-0.175
33.945,-0.195
33.953,-0.195
33.961,-0.215
33.969,-0.215
33.977,-0.215
33.984,-0.215
33.992,-0.215
34,-0.215
34.008,-0.225
34.016,-0.235
34.023,-0.235
34.031,-0.245
34.039,-0.245
34.047,-0.245
34.055,-0.245
34.062,-0.225
34.07,-0.245
34.078,-0.245
34.086,-0.255
34.094,-0.245
34.102,-0.235
34.109,-0.245
34.117,-0.245
34.125,-0.245
34.133,-0.245
34.141,-0.245
34.148,-0.245
34.156,-0.245
34.164,-0.235
34.172,-0.235
34.18,-0.215
34.188,-0.215
34.195,-0.245
34.203,-0.245
34.211,-0.225
34.219,-0.215
34.227,-0.205
34.234,-0.215
34.242,-0.185
34.25,-0.185
34.258,-0.185
34.266,-0.165
34.273,-0.115
34.281,-0.105
34.289,-0.085
34.297,-0.025
34.305,0.025
34.312,-0.005
34.32,-0.045
34.328,-0.095
34.336,-0.155
34.344,-0.175
34.352,-0.175
34.359,-0.175
34.367,-0.165
34.375,-0.155
34.383,-0.135
34.391,-0.085
34.398,0.335
34.406,1.055
34.414,1.165
34.422,-0.055
34.43,-0.585
34.438,-0.475
34.445,-0.205
34.453,-0.135
34.461,-0.165
34.469,-0.155
34.477,-0.145
34.484,-0.155
34.492,-0.125
34.5,-0.145
34.508,-0.115
34.516,-0.115
34.523,-0.135
34.531,-0.115
34.539,-0.105
34.547,-0.095
34.555,-0.075
34.562,-0.065
34.57,-0.055
34.578,-0.025
34.586,-0.035
34.594,-0.005
34.602,0.015
34.609,0.045
34.617,0.065
34.625,0.065
34.633,0.075
34.641,0.105
34.648,0.125
34.656,0.165
34.664,0.185
34.672,0.185
34.68,0.225
34.688,0.235
34.695,0.225
34.703,0.205
34.711,0.185
34.719,0.145
34.727,0.095
34.734,0.025
34.742,-0.015
34.75,-0.045
34.758,-0.085
34.766,-0.115
34.773,-0.135
34.781,-0.135
34.789,-0.135
34.797,-0.135
34.805,-0.115
34.812,-0.135
34.82,-0.125
34.828,-0.115
34.836,-0.115
34.844,-0.085
34.852,-0.085
34.859,-0.075
34.867,-0.065
34.875,-0.065
34.883,-0.075
34.891,-0.065
34.898,-0.085
34.906,-0.065
34.914,-0.075
34.922,-0.085
34.93,-0.075
34.938,-0.075
34.945,-0.075
34.953,-0.065
34.961,-0.095
34.969,-0.095
34.977,-0.075
34.984,-0.075
34.992,-0.065
35,-0.065
35.008,-0.065
35.016,-0.055
35.023,-0.075
35.031,-0.065
35.039,-0.055
35.047,-0.065
35.055,-0.055
35.062,-0.065
35.07,-0.065
35.078,-0.055
35.086,-0.065
35.094,-0.055
35.102,-0.055
35.109,-0.055
35.117,-0.045
35.125,-0.055
35.133,-0.045
35.141,-0.045
35.148,-0.065
35.156,-0.045
35.164,-0.035
35.172,-0.055
35.18,-0.035
35.188,-0.035
35.195,-0.025
35.203,-0.045
35.211,-0.035
35.219,0.015
35.227,0.075
35.234,0.055
35.242,0.125
35.25,0.165
35.258,0.135
35.266,0.155
35.273,0.125
35.281,0.075
35.289,0.025
35.297,0.005
35.305,0.015
35.312,0.015
35.32,0.035
35.328,0.045
35.336,0.075
35.344,0.145
35.352,0.715
35.359,1.425
35.367,1.225
35.375,-0.055
35.383,-0.425
35.391,-0.265
35.398,-0.025
35.406,0.055
35.414,0.065
35.422,0.025
35.43,0.055
35.438,0.055
35.445,0.055
35.453,0.045
35.461,0.065
35.469,0.065
35.477,0.075
35.484,0.065
35.492,0.075
35.5,0.085
35.508,0.105
35.516,0.095
35.523,0.125
35.531,0.135
35.539,0.135
35.547,0.145
35.555,0.165
35.562,0.205
35.57,0.195
35.578,0.215
35.586,0.255
35.594,0.255
35.602,0.285
35.609,0.295
35.617,0.305
35.625,0.345
35.633,0.365
35.641,0.375
35.648,0.365
35.656,0.345
35.664,0.345
35.672,0.305
35.68,0.255
35.688,0.195
35.695,0.115
35.703,0.055
35.711,0.065
35.719,-0.005
35.727,-0.005
35.734,-0.015
35.742,-0.015
35.75,-0.005
35.758,-0.025
35.766,-0.005
35.773,-0.005
35.781,-0.015
35.789,0.015
35.797,0.005
35.805,0.015
35.812,0.025
35.82,0.035
35.828,0.045
35.836,0.035
35.844,0.015
35.852,0.005
35.859,0.015
35.867,0.025
35.875,0.015
35.883,0.005
35.891,-0.005
35.898,-0.005
35.906,0.015
35.914,-0.005
35.922,0.005
35.93,0.015
35.938,0.005
35.945,-0.015
35.953,-0.005
35.961,-0.045
35.969,-0.005
35.977,0.005
35.984,0.005
35.992,-0.005
36,-0.015
36.008,0.005
36.016,-0.015
36.023,-0.025
36.031,-0.015
36.039,-0.015
36.047,-0.005
36.055,0.005
36.062,-0.005
36.07,-0.015
36.078,-0.015
36.086,-0.015
36.094,-0.015
36.102,-0.015
36.109,0.005
36.117,0.005
36.125,0.015
36.133,-0.005
36.141,-0.015
36.148,-0.015
36.156,0.015
36.164,0.005
36.172,-0.005
36.18,0.035
36.188,0.065
36.195,0.115
36.203,0.085
36.211,0.115
36.219,0.165
36.227,0.175
36.234,0.185
36.242,0.135
36.25,0.065
36.258,0.005
36.266,-0.005
36.273,-0.025
36.281,-0.015
36.289,0.005
36.297,0.005
36.305,0.045
36.312,0.165
36.32,0.785
36.328,1.535
36.336,0.965
36.344,-0.265
36.352,-0.445
36.359,-0.205
36.367,-0.015
36.375,0.025
36.383,0.005
36.391,-0.025
36.398,-0.015
36.406,-0.015
36.414,0.005
36.422,-0.015
36.43,0.015
36.438,0.045
36.445,0.025
36.453,0.025
36.461,0.025
36.469,0.055
36.477,0.055
36.484,0.065
36.492,0.095
36.5,0.105
36.508,0.105
36.516,0.135
36.523,0.125
36.531,0.155
36.539,0.165
36.547,0.185
36.555,0.215
36.562,0.265
36.57,0.265
36.578,0.275
36.586,0.295
36.594,0.325
36.602,0.335
36.609,0.335
36.617,0.345
36.625,0.325
36.633,0.275
36.641,0.235
36.648,0.145
36.656,0.105
36.664,0.055
36.672,0.015
36.68,-0.025
36.688,-0.035
36.695,-0.045
36.703,-0.065
36.711,-0.085
36.719,-0.065
36.727,-0.065
36.734,-0.045
36.742,-0.025
36.75,-0.035
36.758,-0.025
36.766,-0.045
36.773,-0.035
36.781,-0.035
36.789,-0.045
36.797,-0.035
36.805,-0.025
36.812,-0.025
36.82,0.005
36.828,-0.025
36.836,-0.045
36.844,-0.045
36.852,-0.035
36.859,-0.045
36.867,-0.035
36.875,-0.045
36.883,-0.045
36.891,-0.035
36.898,-0.035
36.906,-0.055
36.914,-0.065
36.922,-0.035
36.93,-0.045
36.938,-0.025
36.945,-0.035
36.953,-0.045
36.961,-0.025
36.969,-0.035
36.977,-0.035
36.984,-0.045
36.992,-0.025
37,-0.035
37.008,-0.025
37.016,-0.035
37.023,-0.055
37.031,-0.025
37.039,-0.035
37.047,-0.025
37.055,-0.025
37.062,-0.025
37.07,-0.035
37.078,-0.025
37.086,-0.035
37.094,-0.025
37.102,-0.015
37.109,-0.035
37.117,-0.015
37.125,-0.005
37.133,-0.025
37.141,-0.015
37.148,-0.005
37.156,0.015
37.164,0.065
37.172,0.075
37.18,0.105
37.188,0.145
37.195,0.175
37.203,0.155
37.211,0.155
37.219,0.105
37.227,0.025
37.234,-0.015
37.242,-0.025
37.25,-0.005
37.258,0.005
37.266,-0.005
37.273,0.005
37.281,0.075
37.289,0.345
37.297,1.005
37.305,1.665
37.312,0.705
37.32,-0.425
37.328,-0.425
37.336,-0.135
37.344,0.005
37.352,0.015
37.359,-0.005
37.367,0.015
37.375,0.005
37.383,0.005
37.391,0.025
37.398,0.005
37.406,0.015
37.414,0.025
37.422,0.015
37.43,0.055
37.438,0.045
37.445,0.045
37.453,0.065
37.461,0.055
37.469,0.085
37.477,0.085
37.484,0.115
37.492,0.135
37.5,0.155
37.508,0.155
37.516,0.175
37.523,0.175
37.531,0.205
37.539,0.235
37.547,0.245
37.555,0.265
37.562,0.295
37.57,0.285
37.578,0.285
37.586,0.275
37.594,0.275
37.602,0.255
37.609,0.215
37.617,0.185
37.625,0.135
37.633,0.085
37.641,0.055
37.648,0.015
37.656,0.005
37.664,-0.015
37.672,-0.005
37.68,-0.025
37.688,-0.015
37.695,-0.015
37.703,-0.015
37.711,-0.025
37.719,-0.015
37.727,-0.005
37.734,-0.005
37.742,0.015
37.75,-0.005
37.758,0.005
37.766,0.005
37.773,-0.005
37.781,-0.005
37.789,0.005
37.797,-0.015
37.805,0.005
37.812,-0.015
37.82,-0.015
37.828,-0.015
37.836,-0.035
37.844,-0.035
37.852,-0.025
37.859,-0.035
37.867,-0.015
37.875,-0.025
37.883,-0.025
37.891,-0.035
37.898,-0.055
37.906,-0.035
37.914,-0.035
37.922,-0.045
37.93,-0.015
37.938,-0.025
37.945,-0.035
37.953,-0.045
37.961,-0.035
37.969,-0.045
37.977,-0.025
37.984,-0.035
37.992,-0.025
38,-0.025
38.008,-0.025
38.016,-0.025
38.023,-0.055
38.031,-0.045
38.039,-0.035
38.047,-0.035
38.055,-0.025
38.062,-0.035
38.07,-0.035
38.078,-0.035
38.086,-0.045
38.094,-0.015
38.102,-0.035
38.109,-0.025
38.117,0.005
38.125,0.045
38.133,0.075
38.141,0.075
38.148,0.105
38.156,0.155
38.164,0.135
38.172,0.135
38.18,0.105
38.188,0.045
38.195,0.015
38.203,-0.015
38.211,-0.015
38.219,-0.015
38.227,-0.005
38.234,0.005
38.242,0.035
38.25,0.155
38.258,0.705
38.266,1.305
38.273,0.745
38.281,-0.205
38.289,-0.325
38.297,-0.155
38.305,-0.025
38.312,-0.005
38.32,-0.005
38.328,-0.015
38.336,-0.035
38.344,-0.025
38.352,-0.015
38.359,-0.035
38.367,-0.015
38.375,-0.005
38.383,-0.005
38.391,-0.005
38.398,-0.005
38.406,0.005
38.414,0.015
38.422,0.035
38.43,0.045
38.438,0.045
38.445,0.065
38.453,0.065
38.461,0.085
38.469,0.105
38.477,0.125
38.484,0.125
38.492,0.145
38.5,0.175
38.508,0.205
38.516,0.205
38.523,0.215
38.531,0.215
38.539,0.235
38.547,0.235
38.555,0.235
38.562,0.205
38.57,0.175
38.578,0.145
38.586,0.055
38.594,0.005
38.602,-0.025
38.609,-0.055
38.617,-0.075
38.625,-0.085
38.633,-0.105
38.641,-0.095
38.648,-0.125
38.656,-0.105
38.664,-0.095
38.672,-0.085
38.68,-0.085
38.688,-0.085
38.695,-0.085
38.703,-0.065
38.711,-0.085
38.719,-0.075
38.727,-0.085
38.734,-0.085
38.742,-0.075
38.75,-0.075
38.758,-0.085
38.766,-0.085
38.773,-0.095
38.781,-0.095
38.789,-0.095
38.797,-0.105
38.805,-0.105
38.812,-0.105
38.82,-0.105
38.828,-0.105
38.836,-0.125
38.844,-0.115
38.852,-0.105
38.859,-0.115
38.867,-0.095
38.875,-0.105
38.883,-0.105
38.891,-0.115
38.898,-0.115
38.906,-0.125
38.914,-0.095
38.922,-0.115
38.93,-0.095
38.938,-0.105
38.945,-0.105
38.953,-0.125
38.961,-0.125
38.969,-0.125
38.977,-0.105
38.984,-0.095
38.992,-0.095
39,-0.105
39.008,-0.105
39.016,-0.105
39.023,-0.115
39.031,-0.115
39.039,-0.105
39.047,-0.115
39.055,-0.105
39.062,-0.105
39.07,-0.105
39.078,-0.105
39.086,-0.105
39.094,-0.055
39.102,-0.015
39.109,-0.015
39.117,0.005
39.125,0.075
39.133,0.045
39.141,0.075
39.148,0.005
39.156,-0.045
39.164,-0.105
39.172,-0.105
39.18,-0.115
39.188,-0.115
39.195,-0.125
39.203,-0.105
39.211,-0.105
39.219,-0.045
39.227,0.555
39.234,1.215
39.242,0.975
39.25,-0.235
39.258,-0.505
39.266,-0.345
39.273,-0.155
39.281,-0.115
39.289,-0.115
39.297,-0.125
39.305,-0.115
39.312,-0.115
39.32,-0.125
39.328,-0.115
39.336,-0.145
39.344,-0.125
39.352,-0.095
39.359,-0.105
39.367,-0.095
39.375,-0.095
39.383,-0.075
39.391,-0.065
39.398,-0.075
39.406,-0.055
39.414,-0.035
39.422,-0.015
39.43,0.005
39.438,0.025
39.445,0.025
39.453,0.045
39.461,0.055
39.469,0.065
39.477,0.095
39.484,0.115
39.492,0.145
39.5,0.145
39.508,0.145
39.516,0.165
39.523,0.145
39.531,0.125
39.539,0.105
39.547,0.065
39.555,0.025
39.562,-0.035
39.57,-0.095
39.578,-0.125
39.586,-0.175
39.594,-0.165
39.602,-0.185
39.609,-0.185
39.617,-0.185
39.625,-0.175
39.633,-0.175
39.641,-0.185
39.648,-0.195
39.656,-0.165
39.664,-0.165
39.672,-0.155
39.68,-0.155
39.688,-0.145
39.695,-0.155
39.703,-0.165
39.711,-0.185
39.719,-0.165
39.727,-0.145
39.734,-0.165
39.742,-0.175
39.75,-0.175
39.758,-0.175
39.766,-0.175
39.773,-0.195
39.781,-0.195
39.789,-0.185
39.797,-0.195
39.805,-0.175
39.812,-0.205
39.82,-0.195
39.828,-0.195
39.836,-0.215
39.844,-0.205
39.852,-0.205
39.859,-0.195
39.867,-0.185
39.875,-0.185
39.883,-0.185
39.891,-0.195
39.898,-0.205
39.906,-0.215
39.914,-0.205
39.922,-0.175
39.93,-0.175
39.938,-0.185
39.945,-0.195
39.953,-0.195
39.961,-0.195
39.969,-0.185
39.977,-0.175
39.984,-0.185
39.992,-0.175
40,-0.165
40.008,-0.165
40.016,-0.165
40.023,-0.165
40.031,-0.175
40.039,-0.155
40.047,-0.165
40.055,-0.145
40.062,-0.125
40.07,-0.105
40.078,-0.065
40.086,-0.045
40.094,-0.015
40.102,0.045
40.109,0.045
40.117,0.035
40.125,0.025
40.133,-0.055
40.141,-0.115
40.148,-0.135
40.156,-0.155
40.164,-0.145
40.172,-0.145
40.18,-0.125
40.188,-0.095
40.195,-0.065
40.203,0.435
40.211,1.135
40.219,1.165
40.227,-0.075
40.234,-0.545
40.242,-0.415
40.25,-0.175
40.258,-0.125
40.266,-0.155
40.273,-0.155
40.281,-0.145
40.289,-0.155
40.297,-0.155
40.305,-0.135
40.312,-0.115
40.32,-0.135
40.328,-0.135
40.336,-0.115
40.344,-0.105
40.352,-0.105
40.359,-0.105
40.367,-0.075
40.375,-0.055
40.383,-0.065
40.391,-0.055
40.398,-0.025
40.406,-0.015
40.414,0.005
40.422,0.015
40.43,0.035
40.438,0.055
40.445,0.055
40.453,0.075
40.461,0.085
40.469,0.105
40.477,0.115
40.484,0.125
40.492,0.135
40.5,0.125
40.508,0.115
40.516,0.085
40.523,0.055
40.531,0.025
40.539,-0.015
40.547,-0.055
40.555,-0.085
40.562,-0.105
40.57,-0.135
40.578,-0.145
40.586,-0.155
40.594,-0.145
40.602,-0.145
40.609,-0.145
40.617,-0.135
40.625,-0.135
40.633,-0.135
40.641,-0.145
40.648,-0.145
40.656,-0.135
40.664,-0.135
40.672,-0.145
40.68,-0.135
40.688,-0.135
40.695,-0.145
40.703,-0.145
40.711,-0.165
40.719,-0.135
40.727,-0.165
40.734,-0.165
40.742,-0.165
40.75,-0.165
40.758,-0.145
40.766,-0.145
40.773,-0.175
40.781,-0.175
40.789,-0.165
40.797,-0.165
40.805,-0.135
40.812,-0.145
40.82,-0.155
40.828,-0.135
40.836,-0.165
40.844,-0.155
40.852,-0.145
40.859,-0.155
40.867,-0.125
40.875,-0.135
40.883,-0.155
40.891,-0.145
40.898,-0.155
40.906,-0.145
40.914,-0.145
40.922,-0.145
40.93,-0.135
40.938,-0.145
40.945,-0.135
40.953,-0.135
40.961,-0.145
40.969,-0.135
40.977,-0.145
40.984,-0.145
40.992,-0.135
41,-0.145
41.008,-0.145
41.016,-0.135
41.023,-0.135
41.031,-0.115
41.039,-0.065
41.047,-0.045
41.055,-0.025
41.062,0.015
41.07,0.045
41.078,0.025
41.086,0.005
41.094,-0.055
41.102,-0.095
41.109,-0.155
41.117,-0.175
41.125,-0.155
41.133,-0.145
41.141,-0.135
41.148,-0.165
41.156,-0.125
41.164,0.305
41.172,1.045
41.18,1.465
41.188,0.285
41.195,-0.535
41.203,-0.485
41.211,-0.235
41.219,-0.135
41.227,-0.125
41.234,-0.135
41.242,-0.135
41.25,-0.135
41.258,-0.125
41.266,-0.125
41.273,-0.125
41.281,-0.125
41.289,-0.115
41.297,-0.115
41.305,-0.085
41.312,-0.075
41.32,-0.065
41.328,-0.085
41.336,-0.075
41.344,-0.045
41.352,-0.035
41.359,-0.025
41.367,-0.015
41.375,0.015
41.383,0.025
41.391,0.025
41.398,0.045
41.406,0.065
41.414,0.105
41.422,0.115
41.43,0.125
41.438,0.145
41.445,0.145
41.453,0.165
41.461,0.155
41.469,0.145
41.477,0.135
41.484,0.095
41.492,0.075
41.5,0.045
41.508,0.005
41.516,-0.025
41.523,-0.055
41.531,-0.075
41.539,-0.075
41.547,-0.075
41.555,-0.075
41.562,-0.075
41.57,-0.085
41.578,-0.065
41.586,-0.075
41.594,-0.075
41.602,-0.065
41.609,-0.065
41.617,-0.065
41.625,-0.065
41.633,-0.075
41.641,-0.065
41.648,-0.085
41.656,-0.085
41.664,-0.075
41.672,-0.075
41.68,-0.075
41.688,-0.085
41.695,-0.095
41.703,-0.105
41.711,-0.115
41.719,-0.095
41.727,-0.115
41.734,-0.115
41.742,-0.105
41.75,-0.105
41.758,-0.115
41.766,-0.125
41.773,-0.125
41.781,-0.125
41.789,-0.135
41.797,-0.125
41.805,-0.115
41.812,-0.125
41.82,-0.145
41.828,-0.145
41.836,-0.145
41.844,-0.135
41.852,-0.135
41.859,-0.135
41.867,-0.135
41.875,-0.125
41.883,-0.135
41.891,-0.145
41.898,-0.155
41.906,-0.145
41.914,-0.145
41.922,-0.145
41.93,-0.125
41.938,-0.145
41.945,-0.135
41.953,-0.135
41.961,-0.155
41.969,-0.135
41.977,-0.135
41.984,-0.145
41.992,-0.145
42,-0.135
42.008,-0.115
42.016,-0.085
42.023,-0.065
42.031,-0.055
42.039,-0.025
42.047,0.035
42.055,0.025
42.062,0.045
42.07,-0.035
42.078,-0.085
42.086,-0.135
42.094,-0.155
42.102,-0.155
42.109,-0.145
42.117,-0.145
42.125,-0.135
42.133,-0.115
42.141,0.085
42.148,0.695
42.156,1.295
42.164,0.575
42.172,-0.395
42.18,-0.485
42.188,-0.275
42.195,-0.145
42.203,-0.135
42.211,-0.155
42.219,-0.165
42.227,-0.145
42.234,-0.155
42.242,-0.145
42.25,-0.135
42.258,-0.135
42.266,-0.125
42.273,-0.145
42.281,-0.115
42.289,-0.115
42.297,-0.105
42.305,-0.075
42.312,-0.075
42.32,-0.075
42.328,-0.055
42.336,-0.055
42.344,-0.035
42.352,-0.015
42.359,-0.005
42.367,0.015
42.375,0.035
42.383,0.055
42.391,0.065
42.398,0.075
42.406,0.105
42.414,0.125
42.422,0.115
42.43,0.155
42.438,0.165
42.445,0.135
42.453,0.125
42.461,0.105
42.469,0.075
42.477,0.025
42.484,-0.025
42.492,-0.055
42.5,-0.105
42.508,-0.125
42.516,-0.145
42.523,-0.155
42.531,-0.155
42.539,-0.155
42.547,-0.145
42.555,-0.135
42.562,-0.125
42.57,-0.135
42.578,-0.135
42.586,-0.135
42.594,-0.115
42.602,-0.105
42.609,-0.105
42.617,-0.085
42.625,-0.085
42.633,-0.095
42.641,-0.095
42.648,-0.115
42.656,-0.085
42.664,-0.095
42.672,-0.095
42.68,-0.085
42.688,-0.085
42.695,-0.085
42.703,-0.085
42.711,-0.105
42.719,-0.085
42.727,-0.095
42.734,-0.095
42.742,-0.085
42.75,-0.095
42.758,-0.095
42.766,-0.095
42.773,-0.095
42.781,-0.085
42.789,-0.095
42.797,-0.105
42.805,-0.095
42.812,-0.085
42.82,-0.095
42.828,-0.085
42.836,-0.095
42.844,-0.085
42.852,-0.095
42.859,-0.095
42.867,-0.085
42.875,-0.095
42.883,-0.095
42.891,-0.095
42.898,-0.105
42.906,-0.095
42.914,-0.085
42.922,-0.085
42.93,-0.075
42.938,-0.085
42.945,-0.085
42.953,-0.085
42.961,-0.095
42.969,-0.085
42.977,-0.085
42.984,-0.065
42.992,-0.005
43,-0.015
43.008,0.005
43.016,0.055
43.023,0.055
43.031,0.055
43.039,0.035
43.047,-0.005
43.055,-0.035
43.062,-0.065
43.07,-0.065
43.078,-0.075
43.086,-0.065
43.094,-0.055
43.102,-0.045
43.109,-0.035
43.117,0.275
43.125,0.815
43.133,0.935
43.141,0.115
43.148,-0.335
43.156,-0.275
43.164,-0.105
43.172,-0.065
43.18,-0.065
43.188,-0.075
43.195,-0.065
43.203,-0.065
43.211,-0.075
43.219,-0.075
43.227,-0.065
43.234,-0.065
43.242,-0.045
43.25,-0.055
43.258,-0.045
43.266,-0.055
43.273,-0.045
43.281,-0.035
43.289,-0.025
43.297,-0.005
43.305,0.005
43.312,0.015
43.32,0.015
43.328,0.045
43.336,0.055
43.344,0.075
43.352,0.085
43.359,0.095
43.367,0.115
43.375,0.145
43.383,0.145
43.391,0.165
43.398,0.145
43.406,0.185
43.414,0.165
43.422,0.165
43.43,0.135
43.438,0.105
43.445,0.065
43.453,0.025
43.461,-0.015
43.469,-0.025
43.477,-0.055
43.484,-0.065
43.492,-0.065
43.5,-0.075
43.508,-0.065
43.516,-0.065
43.523,-0.075
43.531,-0.065
43.539,-0.075
43.547,-0.055
43.555,-0.045
43.562,-0.035
43.57,-0.035
43.578,-0.045
43.586,-0.035
43.594,-0.035
43.602,-0.045
43.609,-0.045
43.617,-0.025
43.625,-0.025
43.633,-0.035
43.641,-0.025
43.648,-0.045
43.656,-0.025
43.664,-0.035
43.672,-0.035
43.68,-0.025
43.688,-0.025
43.695,-0.015
43.703,-0.035
43.711,-0.045
43.719,-0.025
43.727,-0.045
43.734,-0.035
43.742,-0.025
43.75,-0.025
43.758,-0.035
43.766,-0.045
43.773,-0.055
43.781,-0.045
43.789,-0.055
43.797,-0.055
43.805,-0.055
43.812,-0.075
43.82,-0.085
43.828,-0.065
43.836,-0.065
43.844,-0.085
43.852,-0.055
43.859,-0.045
43.867,-0.055
43.875,-0.055
43.883,-0.055
43.891,-0.095
43.898,-0.075
43.906,-0.075
43.914,-0.065
43.922,-0.065
43.93,-0.055
43.938,-0.075
43.945,-0.075
43.953,-0.095
43.961,-0.105
43.969,-0.095
43.977,-0.065
43.984,-0.015
43.992,0.005
44,-0.005
44.008,0.055
44.016,0.035
44.023,0.065
44.031,0.035
44.039,-0.045
44.047,-0.105
44.055,-0.125
44.062,-0.105
44.07,-0.125
44.078,-0.115
44.086,-0.115
44.094,-0.075
44.102,0.005
44.109,0.555
44.117,1.115
44.125,0.775
44.133,-0.205
44.141,-0.425
44.148,-0.305
44.156,-0.125
44.164,-0.095
44.172,-0.115
44.18,-0.095
44.188,-0.125
44.195,-0.095
44.203,-0.095
44.211,-0.105
44.219,-0.095
44.227,-0.085
44.234,-0.115
44.242,-0.105
44.25,-0.065
44.258,-0.095
44.266,-0.075
44.273,-0.065
44.281,-0.055
44.289,-0.015
44.297,-0.025
44.305,-0.025
44.312,-0.005
44.32,-0.005
44.328,0.015
44.336,0.025
44.344,0.045
44.352,0.065
44.359,0.075
44.367,0.105
44.375,0.125
44.383,0.145
44.391,0.135
44.398,0.145
44.406,0.155
44.414,0.115
44.422,0.115
44.43,0.065
44.438,0.035
44.445,-0.035
44.453,-0.075
44.461,-0.095
44.469,-0.125
44.477,-0.135
44.484,-0.135
44.492,-0.135
44.5,-0.135
44.508,-0.145
44.516,-0.145
44.523,-0.135
44.531,-0.125
44.539,-0.145
44.547,-0.115
44.555,-0.095
44.562,-0.105
44.57,-0.105
44.578,-0.115
44.586,-0.115
44.594,-0.105
44.602,-0.105
44.609,-0.115
44.617,-0.115
44.625,-0.105
44.633,-0.115
44.641,-0.125
44.648,-0.115
44.656,-0.125
44.664,-0.125
44.672,-0.115
44.68,-0.135
44.688,-0.115
44.695,-0.115
44.703,-0.135
44.711,-0.145
44.719,-0.135
44.727,-0.125
44.734,-0.125
44.742,-0.125
44.75,-0.125
44.758,-0.125
44.766,-0.135
44.773,-0.145
44.781,-0.125
44.789,-0.135
44.797,-0.135
44.805,-0.115
44.812,-0.115
44.82,-0.125
44.828,-0.125
44.836,-0.135
44.844,-0.125
44.852,-0.115
44.859,-0.125
44.867,-0.115
44.875,-0.115
44.883,-0.125
44.891,-0.125
44.898,-0.135
44.906,-0.135
44.914,-0.125
44.922,-0.125
44.93,-0.115
44.938,-0.115
44.945,-0.105
44.953,-0.085
44.961,-0.055
44.969,-0.045
44.977,-0.025
44.984,0.025
44.992,0.025
45,0.015
45.008,-0.005
45.016,-0.035
45.023,-0.095
45.031,-0.115
45.039,-0.125
45.047,-0.125
45.055,-0.115
45.062,-0.105
45.07,-0.085
45.078,-0.035
45.086,0.315
45.094,0.705
45.102,1.025
45.109,0.365
45.117,-0.295
45.125,-0.385
45.133,-0.235
45.141,-0.145
45.148,-0.135
45.156,-0.135
45.164,-0.135
45.172,-0.125
45.18,-0.125
45.188,-0.145
45.195,-0.135
45.203,-0.145
45.211,-0.135
45.219,-0.125
45.227,-0.125
45.234,-0.115
45.242,-0.105
45.25,-0.075
45.258,-0.075
45.266,-0.075
45.273,-0.075
45.281,-0.045
45.289,-0.025
45.297,-0.025
45.305,0.005
45.312,0.015
45.32,0.025
45.328,0.045
45.336,0.035
45.344,0.065
45.352,0.115
45.359,0.115
45.367,0.105
45.375,0.125
45.383,0.135
45.391,0.085
45.398,0.055
45.406,0.055
45.414,0.015
45.422,-0.035
45.43,-0.065
45.438,-0.125
45.445,-0.145
45.453,-0.175
45.461,-0.165
45.469,-0.165
45.477,-0.155
45.484,-0.165
45.492,-0.165
45.5,-0.145
45.508,-0.145
45.516,-0.135
45.523,-0.145
45.531,-0.135
45.539,-0.125
45.547,-0.135
45.555,-0.115
45.562,-0.115
45.57,-0.105
45.578,-0.115
45.586,-0.115
45.594,-0.105
45.602,-0.115
45.609,-0.115
45.617,-0.095
45.625,-0.125
45.633,-0.115
45.641,-0.125
45.648,-0.125
45.656,-0.125
45.664,-0.115
45.672,-0.135
45.68,-0.125
45.688,-0.125
45.695,-0.135
45.703,-0.145
45.711,-0.145
45.719,-0.125
45.727,-0.135
45.734,-0.135
45.742,-0.125
45.75,-0.115
45.758,-0.115
45.766,-0.125
45.773,-0.135
45.781,-0.145
45.789,-0.135
45.797,-0.115
45.805,-0.125
45.812,-0.135
45.82,-0.125
45.828,-0.135
45.836,-0.135
45.844,-0.115
45.852,-0.115
45.859,-0.115
45.867,-0.115
45.875,-0.105
45.883,-0.095
45.891,-0.105
45.898,-0.075
45.906,-0.045
45.914,-0.025
45.922,-0.025
45.93,0.015
45.938,0.035
45.945,0.025
45.953,0.015
45.961,-0.015
45.969,-0.035
45.977,-0.075
45.984,-0.095
45.992,-0.065
46,-0.065
46.008,-0.055
46.016,-0.035
46.023,0.025
46.031,0.275
46.039,0.675
46.047,0.885
46.055,0.345
46.062,-0.155
46.07,-0.235
46.078,-0.155
46.086,-0.105
46.094,-0.095
46.102,-0.085
46.109,-0.075
46.117,-0.085
46.125,-0.085
46.133,-0.085
46.141,-0.085
46.148,-0.095
46.156,-0.085
46.164,-0.085
46.172,-0.085
46.18,-0.065
46.188,-0.045
46.195,-0.055
46.203,-0.065
46.211,-0.045
46.219,-0.035
46.227,-0.015
46.234,-0.005
46.242,0.015
46.25,0.015
46.258,0.025
46.266,0.045
46.273,0.055
46.281,0.095
46.289,0.095
46.297,0.105
46.305,0.145
46.312,0.155
46.32,0.145
46.328,0.145
46.336,0.145
46.344,0.115
46.352,0.085
46.359,0.045
46.367,0.015
46.375,-0.055
46.383,-0.105
46.391,-0.135
46.398,-0.165
46.406,-0.185
46.414,-0.175
46.422,-0.205
46.43,-0.175
46.438,-0.175
46.445,-0.205
46.453,-0.175
46.461,-0.175
46.469,-0.155
46.477,-0.175
46.484,-0.185
46.492,-0.185
46.5,-0.165
46.508,-0.175
46.516,-0.185
46.523,-0.195
46.531,-0.155
46.539,-0.165
46.547,-0.175
46.555,-0.165
46.562,-0.175
46.57,-0.195
46.578,-0.185
46.586,-0.185
46.594,-0.185
46.602,-0.175
46.609,-0.175
46.617,-0.155
46.625,-0.155
46.633,-0.175
46.641,-0.165
46.648,-0.185
46.656,-0.165
46.664,-0.165
46.672,-0.175
46.68,-0.165
46.688,-0.155
46.695,-0.145
46.703,-0.165
46.711,-0.165
46.719,-0.145
46.727,-0.135
46.734,-0.185
46.742,-0.145
46.75,-0.145
46.758,-0.145
46.766,-0.155
46.773,-0.155
46.781,-0.165
46.789,-0.155
46.797,-0.135
46.805,-0.135
46.812,-0.155
46.82,-0.165
46.828,-0.135
46.836,-0.155
46.844,-0.125
46.852,-0.175
46.859,-0.155
46.867,-0.075
46.875,-0.075
46.883,-0.075
46.891,0.015
46.898,0.005
46.906,-0.005
46.914,-0.025
46.922,-0.085
46.93,-0.125
46.938,-0.135
46.945,-0.185
46.953,-0.175
46.961,-0.165
46.969,-0.125
46.977,-0.135
46.984,-0.105
46.992,0.185
47,0.785
47.008,1.225
47.016,0.315
47.023,-0.475
47.031,-0.465
47.039,-0.265
47.047,-0.145
47.055,-0.145
47.062,-0.145
47.07,-0.135
47.078,-0.155
47.086,-0.155
47.094,-0.135
47.102,-0.125
47.109,-0.125
47.117,-0.115
47.125,-0.115
47.133,-0.115
47.141,-0.095
47.148,-0.105
47.156,-0.085
47.164,-0.075
47.172,-0.065
47.18,-0.045
47.188,-0.035
47.195,-0.025
47.203,-0.025
47.211,-0.005
47.219,0.015
47.227,0.025
47.234,0.055
47.242,0.095
47.25,0.105
47.258,0.105
47.266,0.135
47.273,0.135
47.281,0.155
47.289,0.155
47.297,0.155
47.305,0.165
47.312,0.105
47.32,0.065
47.328,0.005
47.336,-0.065
47.344,-0.105
47.352,-0.135
47.359,-0.155
47.367,-0.155
47.375,-0.145
47.383,-0.165
47.391,-0.175
47.398,-0.175
47.406,-0.155
47.414,-0.175
47.422,-0.155
47.43,-0.145
47.438,-0.135
47.445,-0.145
47.453,-0.115
47.461,-0.125
47.469,-0.125
47.477,-0.135
47.484,-0.125
47.492,-0.135
47.5,-0.155
47.508,-0.125
47.516,-0.115
47.523,-0.135
47.531,-0.125
47.539,-0.135
47.547,-0.145
47.555,-0.135
47.562,-0.125
47.57,-0.145
47.578,-0.125
47.586,-0.145
47.594,-0.155
47.602,-0.145
47.609,-0.145
47.617,-0.145
47.625,-0.155
47.633,-0.135
47.641,-0.145
47.648,-0.135
47.656,-0.155
47.664,-0.145
47.672,-0.135
47.68,-0.145
47.688,-0.165
47.695,-0.125
47.703,-0.155
47.711,-0.145
47.719,-0.145
47.727,-0.135
47.734,-0.135
47.742,-0.135
47.75,-0.145
47.758,-0.125
47.766,-0.145
47.773,-0.125
47.781,-0.125
47.789,-0.135
47.797,-0.165
47.805,-0.125
47.812,-0.085
47.82,-0.065
47.828,-0.045
47.836,-0.055
47.844,0.005
47.852,0.025
47.859,0.025
47.867,0.025
47.875,-0.035
47.883,-0.125
47.891,-0.155
47.898,-0.155
47.906,-0.135
47.914,-0.135
47.922,-0.095
47.93,-0.135
47.938,-0.085
47.945,0.225
47.953,0.835
47.961,1.185
47.969,0.235
47.977,-0.435
47.984,-0.435
47.992,-0.225
48,-0.115
48.008,-0.145
48.016,-0.145
48.023,-0.105
48.031,-0.105
48.039,-0.105
48.047,-0.115
48.055,-0.095
48.062,-0.095
48.07,-0.095
48.078,-0.085
48.086,-0.095
48.094,-0.075
48.102,-0.055
48.109,-0.045
48.117,-0.045
48.125,-0.025
48.133,-0.005
48.141,-0.005
48.148,-0.005
48.156,0.025
48.164,0.045
48.172,0.065
48.18,0.085
48.188,0.115
48.195,0.125
48.203,0.145
48.211,0.165
48.219,0.175
48.227,0.205
48.234,0.205
48.242,0.235
48.25,0.235
48.258,0.195
48.266,0.155
48.273,0.075
48.281,0.075
48.289,0.025
48.297,-0.025
48.305,-0.075
48.312,-0.095
48.32,-0.125
48.328,-0.125
48.336,-0.165
48.344,-0.125
48.352,-0.135
48.359,-0.135
48.367,-0.125
48.375,-0.125
48.383,-0.115
48.391,-0.115
48.398,-0.095
48.406,-0.105
48.414,-0.095
48.422,-0.105
48.43,-0.115
48.438,-0.085
48.445,-0.085
48.453,-0.105
48.461,-0.105
48.469,-0.125
48.477,-0.115
48.484,-0.125
48.492,-0.115
48.5,-0.105
48.508,-0.145
48.516,-0.125
48.523,-0.125
48.531,-0.145
48.539,-0.125
48.547,-0.115
48.555,-0.135
48.562,-0.125
48.57,-0.125
48.578,-0.115
48.586,-0.135
48.594,-0.125
48.602,-0.105
48.609,-0.125
48.617,-0.115
48.625,-0.085
48.633,-0.105
48.641,-0.115
48.648,-0.105
48.656,-0.105
48.664,-0.115
48.672,-0.105
48.68,-0.085
48.688,-0.075
48.695,-0.095
48.703,-0.095
48.711,-0.095
48.719,-0.095
48.727,-0.085
48.734,-0.095
48.742,-0.095
48.75,-0.075
48.758,-0.085
48.766,-0.075
48.773,-0.035
48.781,-0.015
48.789,-0.015
48.797,0.055
48.805,0.095
48.812,0.085
48.82,0.055
48.828,0.025
48.836,-0.065
48.844,-0.105
48.852,-0.125
48.859,-0.115
48.867,-0.105
48.875,-0.055
48.883,-0.065
48.891,-0.055
48.898,0.315
48.906,0.945
48.914,1.375
48.922,0.385
48.93,-0.435
48.938,-0.435
48.945,-0.165
48.953,-0.085
48.961,-0.105
48.969,-0.085
48.977,-0.085
48.984,-0.085
48.992,-0.125
49,-0.085
49.008,-0.065
49.016,-0.085
49.023,-0.085
49.031,-0.065
49.039,-0.055
49.047,-0.045
49.055,-0.035
49.062,-0.015
49.07,-0.025
49.078,-0.015
49.086,-0.005
49.094,0.005
49.102,0.025
49.109,0.035
49.117,0.095
49.125,0.105
49.133,0.115
49.141,0.125
49.148,0.155
49.156,0.155
49.164,0.225
49.172,0.235
49.18,0.265
49.188,0.225
49.195,0.265
49.203,0.265
49.211,0.225
49.219,0.175
49.227,0.135
49.234,0.075
49.242,-0.005
49.25,-0.035
49.258,-0.085
49.266,-0.125
49.273,-0.135
49.281,-0.105
49.289,-0.125
49.297,-0.175
49.305,-0.135
49.312,-0.135
49.32,-0.125
49.328,-0.105
49.336,-0.135
49.344,-0.115
49.352,-0.095
49.359,-0.145
49.367,-0.085
49.375,-0.105
49.383,-0.105
49.391,-0.115
49.398,-0.115
49.406,-0.095
49.414,-0.105
49.422,-0.135
49.43,-0.125
49.438,-0.125
49.445,-0.145
49.453,-0.135
49.461,-0.125
49.469,-0.135
49.477,-0.145
49.484,-0.165
49.492,-0.125
49.5,-0.125
49.508,-0.155
49.516,-0.145
49.523,-0.145
49.531,-0.145
49.539,-0.145
49.547,-0.155
49.555,-0.155
49.562,-0.155
49.57,-0.145
49.578,-0.165
49.586,-0.155
49.594,-0.155
49.602,-0.155
49.609,-0.165
49.617,-0.175
49.625,-0.165
49.633,-0.155
49.641,-0.175
49.648,-0.175
49.656,-0.155
49.664,-0.175
49.672,-0.155
49.68,-0.155
49.688,-0.175
49.695,-0.155
49.703,-0.155
49.711,-0.165
49.719,-0.165
49.727,-0.155
49.734,-0.165
49.742,-0.135
49.75,-0.105
49.758,-0.075
49.766,-0.065
49.773,-0.025
49.781,0.025
49.789,0.005
49.797,-0.005
49.805,-0.025
49.812,-0.105
49.82,-0.145
49.828,-0.165
49.836,-0.175
49.844,-0.165
49.852,-0.145
49.859,-0.135
49.867,-0.105
49.875,0.035
49.883,0.675
49.891,1.325
49.898,0.555
49.906,-0.435
49.914,-0.565
49.922,-0.345
49.93,-0.135
49.938,-0.135
49.945,-0.155
49.953,-0.155
49.961,-0.165
49.969,-0.135
49.977,-0.155
49.984,-0.155
49.992,-0.125
50,-0.115
50.008,-0.125
50.016,-0.115
50.023,-0.105
50.031,-0.095
50.039,-0.075
50.047,-0.075
50.055,-0.055
50.062,-0.055
50.07,-0.035
50.078,-0.015
50.086,-0.005
50.094,0.045
50.102,0.045
50.109,0.055
50.117,0.075
50.125,0.135
50.133,0.135
50.141,0.155
50.148,0.175
50.156,0.195
50.164,0.215
50.172,0.205
50.18,0.235
50.188,0.205
50.195,0.155
50.203,0.095
50.211,0.055
50.219,0.005
50.227,-0.055
50.234,-0.115
50.242,-0.125
50.25,-0.115
50.258,-0.145
50.266,-0.155
50.273,-0.155
50.281,-0.145
50.289,-0.145
50.297,-0.185
50.305,-0.145
50.312,-0.115
50.32,-0.145
50.328,-0.115
50.336,-0.125
50.344,-0.135
50.352,-0.115
50.359,-0.145
50.367,-0.115
50.375,-0.115
50.383,-0.125
50.391,-0.125
50.398,-0.135
50.406,-0.125
50.414,-0.155
50.422,-0.155
50.43,-0.125
50.438,-0.135
50.445,-0.155
50.453,-0.155
50.461,-0.155
50.469,-0.135
50.477,-0.145
50.484,-0.165
50.492,-0.135
50.5,-0.145
50.508,-0.135
50.516,-0.155
50.523,-0.145
50.531,-0.145
50.539,-0.155
50.547,-0.145
50.555,-0.135
50.562,-0.135
50.57,-0.155
50.578,-0.155
50.586,-0.145
50.594,-0.135
50.602,-0.145
50.609,-0.135
50.617,-0.135
50.625,-0.135
50.633,-0.165
50.641,-0.145
50.648,-0.135
50.656,-0.125
50.664,-0.145
50.672,-0.125
50.68,-0.125
50.688,-0.125
50.695,-0.125
50.703,-0.135
50.711,-0.145
50.719,-0.085
50.727,-0.045
50.734,-0.045
50.742,-0.015
50.75,0.045
50.758,0.065
50.766,0.035
50.773,0.025
50.781,-0.015
50.789,-0.075
50.797,-0.125
50.805,-0.145
50.812,-0.135
50.82,-0.125
50.828,-0.105
50.836,-0.115
50.844,-0.085
50.852,0.245
50.859,0.965
50.867,1.515
50.875,0.375
50.883,-0.535
50.891,-0.485
50.898,-0.235
50.906,-0.105
50.914,-0.105
50.922,-0.115
50.93,-0.125
50.938,-0.105
50.945,-0.125
50.953,-0.095
50.961,-0.115
50.969,-0.075
50.977,-0.085
50.984,-0.085
50.992,-0.065
51,-0.065
51.008,-0.055
51.016,-0.045
51.023,-0.035
51.031,-0.025
51.039,-0.005
51.047,0.025
51.055,0.055
51.062,0.045
51.07,0.065
51.078,0.075
51.086,0.105
51.094,0.135
51.102,0.155
51.109,0.185
51.117,0.225
51.125,0.255
51.133,0.225
51.141,0.255
51.148,0.255
51.156,0.255
51.164,0.215
51.172,0.165
51.18,0.115
51.188,0.035
51.195,-0.015
51.203,-0.075
51.211,-0.125
51.219,-0.125
51.227,-0.125
51.234,-0.145
51.242,-0.155
51.25,-0.145
51.258,-0.145
51.266,-0.125
51.273,-0.125
51.281,-0.135
51.289,-0.135
51.297,-0.115
51.305,-0.125
51.312,-0.105
51.32,-0.125
51.328,-0.095
51.336,-0.115
51.344,-0.105
51.352,-0.105
51.359,-0.115
51.367,-0.105
51.375,-0.115
51.383,-0.115
51.391,-0.125
51.398,-0.125
51.406,-0.135
51.414,-0.115
51.422,-0.125
51.43,-0.125
51.438,-0.115
51.445,-0.135
51.453,-0.135
51.461,-0.125
51.469,-0.145
51.477,-0.135
51.484,-0.135
51.492,-0.125
51.5,-0.135
51.508,-0.115
51.516,-0.115
51.523,-0.125
51.531,-0.135
51.539,-0.125
51.547,-0.145
51.555,-0.115
51.562,-0.105
51.57,-0.115
51.578,-0.125
51.586,-0.125
51.594,-0.115
51.602,-0.105
51.609,-0.115
51.617,-0.105
51.625,-0.115
51.633,-0.105
51.641,-0.105
51.648,-0.115
51.656,-0.085
51.664,-0.115
51.672,-0.115
51.68,-0.085
51.688,-0.085
51.695,-0.085
51.703,-0.095
51.711,-0.055
51.719,-0.005
51.727,0.005
51.734,0.035
51.742,0.115
51.75,0.085
51.758,0.075
51.766,0.045
51.773,-0.045
51.781,-0.065
51.789,-0.105
51.797,-0.095
51.805,-0.085
51.812,-0.085
51.82,-0.055
51.828,-0.035
51.836,0.085
51.844,0.725
51.852,1.395
51.859,0.755
51.867,-0.335
51.875,-0.475
51.883,-0.235
51.891,-0.095
51.898,-0.085
51.906,-0.085
51.914,-0.085
51.922,-0.095
51.93,-0.065
51.938,-0.075
51.945,-0.075
51.953,-0.065
51.961,-0.065
51.969,-0.055
51.977,-0.075
51.984,-0.045
51.992,-0.025
52,-0.025
52.008,-0.005
52.016,-0.005
52.023,0.005
52.031,0.015
52.039,0.045
52.047,0.055
52.055,0.095
52.062,0.085
52.07,0.105
52.078,0.125
52.086,0.135
52.094,0.185
52.102,0.195
52.109,0.225
52.117,0.235
52.125,0.245
52.133,0.265
52.141,0.235
52.148,0.215
52.156,0.175
52.164,0.155
52.172,0.075
52.18,0.045
52.188,-0.015
52.195,-0.055
52.203,-0.095
52.211,-0.115
52.219,-0.105
52.227,-0.125
52.234,-0.135
52.242,-0.125
52.25,-0.095
52.258,-0.135
52.266,-0.115
52.273,-0.105
52.281,-0.095
52.289,-0.105
52.297,-0.095
52.305,-0.095
52.312,-0.085
52.32,-0.085
52.328,-0.095
52.336,-0.095
52.344,-0.075
52.352,-0.095
52.359,-0.095
52.367,-0.125
52.375,-0.115
52.383,-0.085
52.391,-0.085
52.398,-0.105
52.406,-0.075
52.414,-0.125
52.422,-0.125
52.43,-0.115
52.438,-0.125
52.445,-0.115
52.453,-0.095
52.461,-0.115
52.469,-0.095
52.477,-0.115
52.484,-0.105
52.492,-0.085
52.5,-0.135
52.508,-0.065
52.516,-0.095
52.523,-0.125
52.531,-0.075
52.539,-0.085
52.547,-0.085
52.555,-0.055
52.562,-0.095
52.57,-0.085
52.578,-0.065
52.586,-0.085
52.594,-0.045
52.602,-0.095
52.609,-0.085
52.617,-0.025
52.625,-0.045
52.633,-0.065
52.641,-0.015
52.648,-0.095
52.656,-0.075
52.664,-0.055
52.672,-0.015
52.68,-0.005
52.688,0.025
52.695,0.035
52.703,0.105
52.711,0.165
52.719,0.135
52.727,0.115
52.734,0.045
52.742,0.025
52.75,-0.035
52.758,-0.075
52.766,-0.055
52.773,-0.065
52.781,-0.075
52.789,-0.055
52.797,0.005
52.805,0.135
52.812,0.805
52.82,1.465
52.828,0.675
52.836,-0.375
52.844,-0.475
52.852,-0.245
52.859,-0.075
52.867,-0.105
52.875,-0.045
52.883,-0.075
52.891,-0.105
52.898,-0.105
52.906,-0.055
52.914,-0.085
52.922,-0.085
52.93,-0.075
52.938,-0.065
52.945,-0.045
52.953,-0.015
52.961,-0.075
52.969,-0.025
52.977,-0.005
52.984,0.005
52.992,0.015
53,0.045
53.008,0.045
53.016,0.055
53.023,0.055
53.031,0.105
53.039,0.135
53.047,0.115
53.055,0.145
53.062,0.195
53.07,0.195
53.078,0.245
53.086,0.245
53.094,0.255
53.102,0.285
53.109,0.245
53.117,0.225
53.125,0.205
53.133,0.115
53.141,0.085
53.148,0.005
53.156,-0.005
53.164,-0.065
53.172,-0.125
53.18,-0.115
53.188,-0.105
53.195,-0.135
53.203,-0.125
53.211,-0.135
53.219,-0.115
53.227,-0.105
53.234,-0.095
53.242,-0.105
53.25,-0.105
53.258,-0.085
53.266,-0.105
53.273,-0.095
53.281,-0.065
53.289,-0.075
53.297,-0.105
53.305,-0.095
53.312,-0.095
53.32,-0.075
53.328,-0.085
53.336,-0.115
53.344,-0.105
53.352,-0.095
53.359,-0.105
53.367,-0.075
53.375,-0.115
53.383,-0.105
53.391,-0.085
53.398,-0.115
53.406,-0.095
53.414,-0.105
53.422,-0.115
53.43,-0.105
53.438,-0.095
53.445,-0.105
53.453,-0.085
53.461,-0.105
53.469,-0.105
53.477,-0.105
53.484,-0.135
53.492,-0.105
53.5,-0.115
53.508,-0.125
53.516,-0.105
53.523,-0.125
53.531,-0.085
53.539,-0.135
53.547,-0.145
53.555,-0.105
53.562,-0.125
53.57,-0.145
53.578,-0.125
53.586,-0.155
53.594,-0.115
53.602,-0.115
53.609,-0.145
53.617,-0.125
53.625,-0.055
53.633,-0.055
53.641,-0.045
53.648,-0.005
53.656,0.055
53.664,0.015
53.672,0.015
53.68,-0.015
53.688,-0.065
53.695,-0.145
53.703,-0.155
53.711,-0.175
53.719,-0.135
53.727,-0.115
53.734,-0.115
53.742,-0.075
53.75,0.075
53.758,0.815
53.766,1.485
53.773,0.615
53.781,-0.475
53.789,-0.545
53.797,-0.295
53.805,-0.115
53.812,-0.125
53.82,-0.145
53.828,-0.115
53.836,-0.155
53.844,-0.115
53.852,-0.145
53.859,-0.135
53.867,-0.115
53.875,-0.115
53.883,-0.105
53.891,-0.085
53.898,-0.105
53.906,-0.095
53.914,-0.055
53.922,-0.065
53.93,-0.055
53.938,-0.065
53.945,0.005
53.953,0.025
53.961,0.005
53.969,0.035
53.977,0.055
53.984,0.055
53.992,0.105
54,0.135
54.008,0.135
54.016,0.175
54.023,0.195
54.031,0.185
54.039,0.195
54.047,0.215
54.055,0.215
54.062,0.185
54.07,0.135
54.078,0.075
54.086,0.005
54.094,-0.045
54.102,-0.085
54.109,-0.125
54.117,-0.175
54.125,-0.155
54.133,-0.185
54.141,-0.185
54.148,-0.185
54.156,-0.205
54.164,-0.155
54.172,-0.175
54.18,-0.155
54.188,-0.175
54.195,-0.175
54.203,-0.145
54.211,-0.165
54.219,-0.155
54.227,-0.155
54.234,-0.175
54.242,-0.145
54.25,-0.145
54.258,-0.145
54.266,-0.175
54.273,-0.175
54.281,-0.175
54.289,-0.165
54.297,-0.195
54.305,-0.155
54.312,-0.155
54.32,-0.155
54.328,-0.165
54.336,-0.185
54.344,-0.185
54.352,-0.175
54.359,-0.185
54.367,-0.135
54.375,-0.175
54.383,-0.175
54.391,-0.175
54.398,-0.175
54.406,-0.185
54.414,-0.155
54.422,-0.185
54.43,-0.175
54.438,-0.175
54.445,-0.155
54.453,-0.145
54.461,-0.165
54.469,-0.185
54.477,-0.165
54.484,-0.165
54.492,-0.155
54.5,-0.145
54.508,-0.165
54.516,-0.155
54.523,-0.165
54.531,-0.165
54.539,-0.155
54.547,-0.165
54.555,-0.155
54.562,-0.115
54.57,-0.085
54.578,-0.055
54.586,-0.055
54.594,0.015
54.602,0.035
54.609,0.015
54.617,0.005
54.625,-0.075
54.633,-0.115
54.641,-0.145
54.648,-0.155
54.656,-0.135
54.664,-0.145
54.672,-0.115
54.68,-0.105
54.688,-0.105
54.695,0.315
54.703,0.995
54.711,1.305
54.719,0.235
54.727,-0.515
54.734,-0.485
54.742,-0.195
54.75,-0.095
54.758,-0.105
54.766,-0.135
54.773,-0.135
54.781,-0.125
54.789,-0.125
54.797,-0.125
54.805,-0.115
54.812,-0.115
54.82,-0.105
54.828,-0.115
54.836,-0.105
54.844,-0.065
54.852,-0.095
54.859,-0.075
54.867,-0.065
54.875,-0.045
54.883,-0.035
54.891,-0.015
54.898,-0.015
54.906,0.035
54.914,0.035
54.922,0.055
54.93,0.075
54.938,0.105
54.945,0.105
54.953,0.135
54.961,0.145
54.969,0.175
54.977,0.215
54.984,0.215
54.992,0.215
55,0.205
55.008,0.185
55.016,0.125
55.023,0.085
55.031,0.015
55.039,-0.055
55.047,-0.095
55.055,-0.105
55.062,-0.145
55.07,-0.165
55.078,-0.175
55.086,-0.195
55.094,-0.165
55.102,-0.185
55.109,-0.185
55.117,-0.145
55.125,-0.155
55.133,-0.165
55.141,-0.145
55.148,-0.165
55.156,-0.145
55.164,-0.145
55.172,-0.155
55.18,-0.165
55.188,-0.135
55.195,-0.145
55.203,-0.145
55.211,-0.175
55.219,-0.155
55.227,-0.165
55.234,-0.175
55.242,-0.155
55.25,-0.155
55.258,-0.165
55.266,-0.175
55.273,-0.185
55.281,-0.175
55.289,-0.155
55.297,-0.165
55.305,-0.155
55.312,-0.165
55.32,-0.155
55.328,-0.175
55.336,-0.175
55.344,-0.145
55.352,-0.165
55.359,-0.185
55.367,-0.135
55.375,-0.155
55.383,-0.165
55.391,-0.175
55.398,-0.165
55.406,-0.135
55.414,-0.185
55.422,-0.165
55.43,-0.115
55.438,-0.155
55.445,-0.165
55.453,-0.145
55.461,-0.165
55.469,-0.155
55.477,-0.135
55.484,-0.155
55.492,-0.125
55.5,-0.145
55.508,-0.125
55.516,-0.065
55.523,-0.065
55.531,-0.035
55.539,0.025
55.547,0.035
55.555,0.045
55.562,0.065
55.57,-0.005
55.578,-0.065
55.586,-0.135
55.594,-0.135
55.602,-0.135
55.609,-0.165
55.617,-0.095
55.625,-0.085
55.633,-0.045
55.641,0.235
55.648,0.965
55.656,1.505
55.664,0.295
55.672,-0.545
55.68,-0.445
55.688,-0.145
55.695,-0.125
55.703,-0.155
55.711,-0.125
55.719,-0.095
55.727,-0.135
55.734,-0.065
55.742,-0.085
55.75,-0.075
55.758,-0.095
55.766,-0.075
55.773,-0.075
55.781,-0.115
55.789,-0.055
55.797,-0.025
55.805,-0.035
55.812,-0.025
55.82,0.035
55.828,0.015
55.836,0.015
55.844,0.055
55.852,0.055
55.859,0.075
55.867,0.105
55.875,0.125
55.883,0.135
55.891,0.135
55.898,0.185
55.906,0.215
55.914,0.235
55.922,0.255
55.93,0.245
55.938,0.235
55.945,0.225
55.953,0.215
55.961,0.155
55.969,0.105
55.977,0.045
55.984,0.005
55.992,-0.095
56,-0.075
56.008,-0.105
56.016,-0.095
56.023,-0.215
56.031,-0.135
56.039,-0.135
56.047,-0.135
56.055,-0.145
56.062,-0.135
56.07,-0.135
56.078,-0.155
56.086,-0.115
56.094,-0.125
56.102,-0.135
56.109,-0.135
56.117,-0.105
56.125,-0.155
56.133,-0.095
56.141,-0.145
56.148,-0.165
56.156,-0.145
56.164,-0.135
56.172,-0.165
56.18,-0.145
56.188,-0.155
56.195,-0.135
56.203,-0.185
56.211,-0.155
56.219,-0.205
56.227,-0.145
56.234,-0.125
56.242,-0.135
56.25,-0.155
56.258,-0.135
56.266,-0.145
56.273,-0.155
56.281,-0.165
56.289,-0.135
56.297,-0.225
56.305,-0.125
56.312,-0.125
56.32,-0.135
56.328,-0.135
56.336,-0.175
56.344,-0.145
56.352,-0.155
56.359,-0.135
56.367,-0.135
56.375,-0.115
56.383,-0.135
56.391,-0.145
56.398,-0.145
56.406,-0.135
56.414,-0.105
56.422,-0.165
56.43,-0.105
56.438,-0.095
56.445,-0.085
56.453,-0.065
56.461,-0.065
56.469,-0.035
56.477,0.075
56.484,0.105
56.492,0.035
56.5,0.055
56.508,-0.035
56.516,-0.075
56.523,-0.115
56.531,-0.135
56.539,-0.145
56.547,-0.115
56.555,-0.095
56.562,-0.065
56.57,-0.075
56.578,0.295
56.586,0.985
56.594,1.295
56.602,0.065
56.609,-0.525
56.617,-0.415
56.625,-0.165
56.633,-0.105
56.641,-0.085
56.648,-0.105
56.656,-0.125
56.664,-0.135
56.672,-0.065
56.68,-0.155
56.688,-0.145
56.695,-0.075
56.703,-0.075
56.711,-0.075
56.719,-0.105
56.727,-0.065
56.734,-0.105
56.742,-0.055
56.75,-0.055
56.758,0.005
56.766,-0.005
56.773,-0.005
56.781,0.015
56.789,0.005
56.797,0.065
56.805,0.095
56.812,0.075
56.82,0.125
56.828,0.155
56.836,0.165
56.844,0.165
56.852,0.195
56.859,0.205
56.867,0.255
56.875,0.205
56.883,0.215
56.891,0.215
56.898,0.135
56.906,0.105
56.914,0.075
56.922,0.015
56.93,-0.035
56.938,-0.085
56.945,-0.115
56.953,-0.105
56.961,-0.175
56.969,-0.145
56.977,-0.145
56.984,-0.145
56.992,-0.125
57,-0.125
57.008,-0.155
57.016,-0.125
57.023,-0.145
57.031,-0.135
57.039,-0.125
57.047,-0.135
57.055,-0.135
57.062,-0.145
57.07,-0.135
57.078,-0.145
57.086,-0.145
57.094,-0.155
57.102,-0.145
57.109,-0.165
57.117,-0.145
57.125,-0.145
57.133,-0.145
57.141,-0.155
57.148,-0.175
57.156,-0.165
57.164,-0.165
57.172,-0.185
57.18,-0.165
57.188,-0.185
57.195,-0.145
57.203,-0.185
57.211,-0.175
57.219,-0.185
57.227,-0.175
57.234,-0.175
57.242,-0.155
57.25,-0.185
57.258,-0.205
57.266,-0.175
57.273,-0.185
57.281,-0.155
57.289,-0.185
57.297,-0.185
57.305,-0.155
57.312,-0.165
57.32,-0.195
57.328,-0.175
57.336,-0.185
57.344,-0.155
57.352,-0.155
57.359,-0.165
57.367,-0.105
57.375,-0.105
57.383,-0.065
57.391,-0.065
57.398,0.025
57.406,0.005
57.414,-0.005
57.422,-0.015
57.43,-0.105
57.438,-0.165
57.445,-0.175
57.453,-0.165
57.461,-0.185
57.469,-0.155
57.477,-0.135
57.484,-0.135
57.492,-0.055
57.5,0.485
57.508,1.265
57.516,0.855
57.523,-0.295
57.531,-0.595
57.539,-0.415
57.547,-0.205
57.555,-0.145
57.562,-0.135
57.57,-0.155
57.578,-0.145
57.586,-0.155
57.594,-0.145
57.602,-0.125
57.609,-0.145
57.617,-0.115
57.625,-0.105
57.633,-0.115
57.641,-0.095
57.648,-0.125
57.656,-0.085
57.664,-0.095
57.672,-0.065
57.68,-0.025
57.688,-0.035
57.695,-0.015
57.703,0.005
57.711,-0.015
57.719,0.015
57.727,0.065
57.734,0.075
57.742,0.085
57.75,0.135
57.758,0.135
57.766,0.175
57.773,0.195
57.781,0.185
57.789,0.205
57.797,0.205
57.805,0.205
57.812,0.145
57.82,0.115
57.828,0.055
57.836,-0.035
57.844,-0.065
57.852,-0.115
57.859,-0.125
57.867,-0.155
57.875,-0.165
57.883,-0.185
57.891,-0.175
57.898,-0.195
57.906,-0.165
57.914,-0.195
57.922,-0.155
57.93,-0.135
57.938,-0.135
57.945,-0.165
57.953,-0.175
57.961,-0.155
57.969,-0.135
57.977,-0.135
57.984,-0.135
57.992,-0.135
58,-0.145
58.008,-0.155
58.016,-0.155
58.023,-0.185
58.031,-0.165
58.039,-0.135
58.047,-0.155
58.055,-0.135
58.062,-0.175
58.07,-0.155
58.078,-0.165
58.086,-0.185
58.094,-0.145
58.102,-0.155
58.109,-0.145
58.117,-0.125
58.125,-0.135
58.133,-0.155
58.141,-0.125
58.148,-0.155
58.156,-0.125
58.164,-0.135
58.172,-0.135
58.18,-0.105
58.188,-0.125
58.195,-0.115
58.203,-0.115
58.211,-0.145
58.219,-0.115
58.227,-0.125
58.234,-0.135
58.242,-0.115
58.25,-0.115
58.258,-0.105
58.266,-0.105
58.273,-0.095
58.281,-0.035
58.289,-0.035
58.297,0.015
58.305,0.055
58.312,0.065
58.32,0.065
58.328,0.035
58.336,-0.025
58.344,-0.085
58.352,-0.115
58.359,-0.105
58.367,-0.085
58.375,-0.115
58.383,-0.135
58.391,-0.075
58.398,-0.065
58.406,0.335
58.414,1.085
58.422,1.515
58.43,0.215
58.438,-0.575
58.445,-0.515
58.453,-0.195
58.461,-0.105
58.469,-0.095
58.477,-0.095
58.484,-0.105
58.492,-0.085
58.5,-0.105
58.508,-0.105
58.516,-0.115
58.523,-0.085
58.531,-0.085
58.539,-0.065
58.547,-0.055
58.555,-0.035
58.562,-0.065
58.57,-0.045
58.578,-0.015
58.586,-0.015
58.594,0.005
58.602,0.045
58.609,0.045
58.617,0.065
58.625,0.085
58.633,0.105
58.641,0.115
58.648,0.135
58.656,0.175
58.664,0.215
58.672,0.225
58.68,0.265
58.688,0.285
58.695,0.265
58.703,0.295
58.711,0.265
58.719,0.255
58.727,0.205
58.734,0.125
58.742,0.065
58.75,0.015
58.758,-0.045
58.766,-0.055
58.773,-0.105
58.781,-0.105
58.789,-0.135
58.797,-0.125
58.805,-0.135
58.812,-0.125
58.82,-0.105
58.828,-0.115
58.836,-0.105
58.844,-0.085
58.852,-0.115
58.859,-0.095
58.867,-0.065
58.875,-0.065
58.883,-0.045
58.891,-0.065
58.898,-0.065
58.906,-0.035
58.914,-0.065
58.922,-0.055
58.93,-0.055
58.938,-0.045
58.945,-0.065
58.953,-0.075
58.961,-0.075
58.969,-0.055
58.977,-0.045
58.984,-0.075
58.992,-0.045
59,-0.055
59.008,-0.065
59.016,-0.055
59.023,-0.065
59.031,-0.055
59.039,-0.045
59.047,-0.055
59.055,-0.045
59.062,-0.045
59.07,-0.045
59.078,-0.035
59.086,-0.045
59.094,-0.035
59.102,-0.025
59.109,-0.025
59.117,-0.015
59.125,-0.035
59.133,-0.025
59.141,-0.025
59.148,-0.025
59.156,-0.025
59.164,-0.005
59.172,-0.025
59.18,-0.015
59.188,0.025
59.195,0.025
59.203,0.045
59.211,0.075
59.219,0.115
59.227,0.105
59.234,0.095
59.242,0.055
59.25,0.005
59.258,-0.025
59.266,-0.055
59.273,-0.085
59.281,-0.065
59.289,-0.065
59.297,-0.045
59.305,-0.015
59.312,-0.025
59.32,0.395
59.328,0.965
59.336,0.775
59.344,-0.135
59.352,-0.485
59.359,-0.375
59.367,-0.175
59.375,-0.105
59.383,-0.105
59.391,-0.115
59.398,-0.145
59.406,-0.115
59.414,-0.105
59.422,-0.145
59.43,-0.125
59.438,-0.085
59.445,-0.095
59.453,-0.105
59.461,-0.105
59.469,-0.075
59.477,-0.075
59.484,-0.065
59.492,-0.045
59.5,-0.045
59.508,-0.035
59.516,-0.025
59.523,-0.005
59.531,0.015
59.539,0.045
59.547,0.045
59.555,0.095
59.562,0.095
59.57,0.125
59.578,0.155
59.586,0.165
59.594,0.185
59.602,0.205
59.609,0.205
59.617,0.215
59.625,0.205
59.633,0.165
59.641,0.125
59.648,0.045
59.656,0.005
59.664,-0.035
59.672,-0.095
59.68,-0.105
59.688,-0.105
59.695,-0.155
59.703,-0.155
59.711,-0.185
59.719,-0.135
59.727,-0.145
59.734,-0.125
59.742,-0.125
59.75,-0.135
59.758,-0.115
59.766,-0.105
59.773,-0.115
59.781,-0.115
59.789,-0.115
59.797,-0.135
59.805,-0.105
59.812,-0.095
59.82,-0.115
59.828,-0.135
59.836,-0.145
59.844,-0.155
59.852,-0.145
59.859,-0.145
59.867,-0.125
59.875,-0.155
59.883,-0.155
59.891,-0.155
59.898,-0.145
59.906,-0.145
59.914,-0.145
59.922,-0.165
59.93,-0.185
59.938,-0.145
59.945,-0.145
59.953,-0.145
59.961,-0.175
59.969,-0.135
59.977,-0.175
59.984,-0.155
59.992,-0.135
