0,-0.165
0.008,-0.155
0.016,-0.195
0.023,-0.205
0.031,-0.185
0.039,-0.155
0.047,-0.135
0.055,-0.095
0.062,-0.075
0.07,-0.065
0.078,-0.065
0.086,-0.125
0.094,-0.125
0.102,-0.125
0.109,-0.115
0.117,-0.125
0.125,-0.165
0.133,-0.115
0.141,-0.145
0.148,-0.115
0.156,-0.135
0.164,-0.135
0.172,-0.125
0.18,-0.175
0.188,-0.145
0.195,-0.125
0.203,-0.145
0.211,-0.145
0.219,-0.135
0.227,-0.165
0.234,-0.155
0.242,-0.095
0.25,-0.105
0.258,-0.075
0.266,-0.085
0.273,0.025
0.281,0.025
0.289,-0.025
0.297,-0.085
0.305,-0.115
0.312,-0.145
0.32,-0.125
0.328,-0.155
0.336,-0.205
0.344,-0.215
0.352,-0.215
0.359,-0.165
0.367,-0.165
0.375,-0.155
0.383,-0.615
0.391,-0.855
0.398,-0.185
0.406,1.295
0.414,2.575
0.422,2.675
0.43,2.445
0.438,0.735
0.445,-0.415
0.453,-0.295
0.461,-0.285
0.469,-0.345
0.477,-0.365
0.484,-0.345
0.492,-0.305
0.5,-0.315
0.508,-0.305
0.516,-0.265
0.523,-0.235
0.531,-0.265
0.539,-0.245
0.547,-0.215
0.555,-0.195
0.562,-0.175
0.57,-0.185
0.578,-0.155
0.586,-0.125
0.594,-0.145
0.602,-0.125
0.609,-0.145
0.617,-0.155
0.625,-0.185
0.633,-0.175
0.641,-0.175
0.648,-0.165
0.656,-0.165
0.664,-0.115
0.672,-0.065
0.68,-0.095
0.688,-0.115
0.695,-0.075
0.703,-0.115
0.711,-0.155
0.719,-0.105
0.727,-0.125
0.734,-0.135
0.742,-0.125
0.75,-0.115
0.758,-0.105
0.766,-0.135
0.773,-0.135
0.781,-0.135
0.789,-0.145
0.797,-0.125
0.805,-0.115
0.812,-0.135
0.82,-0.135
0.828,-0.165
0.836,-0.155
0.844,-0.115
0.852,-0.085
0.859,-0.055
0.867,-0.055
0.875,-0.045
0.883,0.065
0.891,0.005
0.898,-0.015
0.906,-0.055
0.914,-0.115
0.922,-0.135
0.93,-0.135
0.938,-0.175
0.945,-0.205
0.953,-0.225
0.961,-0.175
0.969,-0.175
0.977,-0.155
0.984,-0.255
0.992,-0.875
1,-0.645
1.008,0.645
1.016,2.315
1.023,2.925
1.031,2.725
1.039,1.225
1.047,-0.185
1.055,-0.275
1.062,-0.275
1.07,-0.285
1.078,-0.285
1.086,-0.335
1.094,-0.305
1.102,-0.285
1.109,-0.275
1.117,-0.275
1.125,-0.245
1.133,-0.245
1.141,-0.225
1.148,-0.195
1.156,-0.205
1.164,-0.165
1.172,-0.125
1.18,-0.135
1.188,-0.105
1.195,-0.115
1.203,-0.115
1.211,-0.095
1.219,-0.155
1.227,-0.165
1.234,-0.185
1.242,-0.185
1.25,-0.175
1.258,-0.195
1.266,-0.135
1.273,-0.105
1.281,-0.105
1.289,-0.095
1.297,-0.095
1.305,-0.115
1.312,-0.105
1.32,-0.115
1.328,-0.115
1.336,-0.125
1.344,-0.115
1.352,-0.115
1.359,-0.115
1.367,-0.115
1.375,-0.105
1.383,-0.105
1.391,-0.095
1.398,-0.125
1.406,-0.115
1.414,-0.105
1.422,-0.095
1.43,-0.105
1.438,-0.105
1.445,-0.105
1.453,-0.075
1.461,-0.045
1.469,-0.035
1.477,-0.025
1.484,0.065
1.492,0.015
1.5,-0.055
1.508,-0.095
1.516,-0.045
1.523,-0.095
1.531,-0.145
1.539,-0.155
1.547,-0.155
1.555,-0.185
1.562,-0.185
1.57,-0.165
1.578,-0.155
1.586,-0.155
1.594,-0.685
1.602,-0.845
1.609,0.055
1.617,1.645
1.625,2.725
1.633,2.855
1.641,2.255
1.648,0.495
1.656,-0.255
1.664,-0.215
1.672,-0.255
1.68,-0.295
1.688,-0.305
1.695,-0.335
1.703,-0.305
1.711,-0.345
1.719,-0.305
1.727,-0.265
1.734,-0.265
1.742,-0.265
1.75,-0.205
1.758,-0.215
1.766,-0.185
1.773,-0.165
1.781,-0.135
1.789,-0.155
1.797,-0.105
1.805,-0.125
1.812,-0.145
1.82,-0.135
1.828,-0.115
1.836,-0.175
1.844,-0.195
1.852,-0.215
1.859,-0.185
1.867,-0.185
1.875,-0.155
1.883,-0.125
1.891,-0.125
1.898,-0.135
1.906,-0.105
1.914,-0.125
1.922,-0.135
1.93,-0.165
1.938,-0.175
1.945,-0.175
1.953,-0.095
1.961,-0.125
1.969,-0.135
1.977,-0.145
1.984,-0.125
1.992,-0.115
2,-0.095
2.008,-0.125
2.016,-0.155
2.023,-0.125
2.031,-0.125
2.039,-0.165
2.047,-0.135
2.055,-0.115
2.062,-0.055
2.07,-0.035
2.078,-0.085
2.086,-0.045
2.094,0.045
2.102,-0.005
2.109,-0.045
2.117,-0.125
2.125,-0.145
2.133,-0.115
2.141,-0.135
2.148,-0.175
2.156,-0.225
2.164,-0.205
2.172,-0.205
2.18,-0.245
2.188,-0.185
2.195,-0.195
2.203,-0.835
2.211,-0.775
2.219,0.295
2.227,2.085
2.234,2.885
2.242,2.645
2.25,1.575
2.258,0.005
2.266,-0.305
2.273,-0.265
2.281,-0.315
2.289,-0.355
2.297,-0.355
2.305,-0.365
2.312,-0.375
2.32,-0.335
2.328,-0.295
2.336,-0.285
2.344,-0.285
2.352,-0.265
2.359,-0.255
2.367,-0.245
2.375,-0.205
2.383,-0.175
2.391,-0.185
2.398,-0.145
2.406,-0.155
2.414,-0.175
2.422,-0.145
2.43,-0.215
2.438,-0.215
2.445,-0.215
2.453,-0.265
2.461,-0.245
2.469,-0.225
2.477,-0.175
2.484,-0.185
2.492,-0.175
2.5,-0.175
2.508,-0.175
2.516,-0.165
2.523,-0.175
2.531,-0.185
2.539,-0.205
2.547,-0.185
2.555,-0.185
2.562,-0.185
2.57,-0.165
2.578,-0.175
2.586,-0.195
2.594,-0.165
2.602,-0.185
2.609,-0.195
2.617,-0.165
2.625,-0.175
2.633,-0.175
2.641,-0.175
2.648,-0.185
2.656,-0.185
2.664,-0.195
2.672,-0.205
2.68,-0.125
2.688,-0.125
2.695,-0.145
2.703,-0.095
2.711,-0.025
2.719,-0.035
2.727,-0.075
2.734,-0.115
2.742,-0.145
2.75,-0.175
2.758,-0.215
2.766,-0.225
2.773,-0.235
2.781,-0.245
2.789,-0.255
2.797,-0.245
2.805,-0.235
2.812,-0.185
2.82,-0.725
2.828,-0.905
2.836,-0.105
2.844,1.645
2.852,2.615
2.859,2.535
2.867,1.825
2.875,0.275
2.883,-0.345
2.891,-0.325
2.898,-0.335
2.906,-0.365
2.914,-0.375
2.922,-0.395
2.93,-0.375
2.938,-0.395
2.945,-0.355
2.953,-0.325
2.961,-0.345
2.969,-0.325
2.977,-0.285
2.984,-0.285
2.992,-0.255
3,-0.275
3.008,-0.295
3.016,-0.135
3.023,-0.185
3.031,-0.185
3.039,-0.185
3.047,-0.215
3.055,-0.215
3.062,-0.285
3.07,-0.295
3.078,-0.305
3.086,-0.225
3.094,-0.195
3.102,-0.155
3.109,-0.145
3.117,-0.175
3.125,-0.165
3.133,-0.205
3.141,-0.145
3.148,-0.185
3.156,-0.215
3.164,-0.215
3.172,-0.185
3.18,-0.195
3.188,-0.255
3.195,-0.185
3.203,-0.205
3.211,-0.225
3.219,-0.165
3.227,-0.155
3.234,-0.185
3.242,-0.205
3.25,-0.205
3.258,-0.215
3.266,-0.175
3.273,-0.185
3.281,-0.215
3.289,-0.185
3.297,-0.125
3.305,-0.125
3.312,-0.155
3.32,-0.095
3.328,0.005
3.336,-0.065
3.344,-0.135
3.352,-0.145
3.359,-0.105
3.367,-0.165
3.375,-0.215
3.383,-0.225
3.391,-0.265
3.398,-0.235
3.406,-0.265
3.414,-0.275
3.422,-0.205
3.43,-0.325
3.438,-0.915
3.445,-0.695
3.453,0.545
3.461,2.155
3.469,2.655
3.477,2.375
3.484,1.055
3.492,-0.215
3.5,-0.335
3.508,-0.345
3.516,-0.375
3.523,-0.365
3.531,-0.385
3.539,-0.395
3.547,-0.365
3.555,-0.375
3.562,-0.355
3.57,-0.325
3.578,-0.315
3.586,-0.275
3.594,-0.245
3.602,-0.235
3.609,-0.215
3.617,-0.225
3.625,-0.205
3.633,-0.195
3.641,-0.205
3.648,-0.185
3.656,-0.185
3.664,-0.205
3.672,-0.225
3.68,-0.215
3.688,-0.215
3.695,-0.255
3.703,-0.235
3.711,-0.185
3.719,-0.165
3.727,-0.145
3.734,-0.135
3.742,-0.155
3.75,-0.155
3.758,-0.145
3.766,-0.135
3.773,-0.155
3.781,-0.165
3.789,-0.165
3.797,-0.145
3.805,-0.165
3.812,-0.185
3.82,-0.145
3.828,-0.175
3.836,-0.135
3.844,-0.165
3.852,-0.135
3.859,-0.125
3.867,-0.135
3.875,-0.145
3.883,-0.145
3.891,-0.125
3.898,-0.135
3.906,-0.115
3.914,-0.075
3.922,-0.075
3.93,-0.095
3.938,0.005
3.945,0.075
3.953,-0.005
3.961,-0.055
3.969,-0.095
3.977,-0.075
3.984,-0.115
3.992,-0.145
4,-0.225
4.008,-0.175
4.016,-0.165
4.023,-0.195
4.031,-0.155
4.039,-0.135
4.047,-0.185
4.055,-0.745
4.062,-0.695
4.07,0.475
4.078,2.205
4.086,2.795
4.094,2.585
4.102,1.415
4.109,-0.055
4.117,-0.295
4.125,-0.265
4.133,-0.295
4.141,-0.285
4.148,-0.285
4.156,-0.305
4.164,-0.295
4.172,-0.255
4.18,-0.275
4.188,-0.275
4.195,-0.225
4.203,-0.195
4.211,-0.185
4.219,-0.175
4.227,-0.155
4.234,-0.145
4.242,-0.145
4.25,-0.115
4.258,-0.135
4.266,-0.115
4.273,-0.105
4.281,-0.165
4.289,-0.145
4.297,-0.195
4.305,-0.165
4.312,-0.125
4.32,-0.145
4.328,-0.105
4.336,-0.055
4.344,-0.075
4.352,-0.075
4.359,-0.095
4.367,-0.065
4.375,-0.075
4.383,-0.105
4.391,-0.095
4.398,-0.085
4.406,-0.135
4.414,-0.125
4.422,-0.095
4.43,-0.115
4.438,-0.095
4.445,-0.115
4.453,-0.105
4.461,-0.105
4.469,-0.105
4.477,-0.165
4.484,-0.145
4.492,-0.065
4.5,-0.095
4.508,-0.095
4.516,-0.065
4.523,-0.015
4.531,-0.035
4.539,-0.025
4.547,0.085
4.555,0.015
4.562,-0.045
4.57,-0.085
4.578,-0.085
4.586,-0.105
4.594,-0.155
4.602,-0.155
4.609,-0.155
4.617,-0.185
4.625,-0.175
4.633,-0.175
4.641,-0.135
4.648,-0.305
4.656,-0.855
4.664,-0.455
4.672,0.895
4.68,2.455
4.688,2.815
4.695,2.545
4.703,1.225
4.711,-0.125
4.719,-0.325
4.727,-0.255
4.734,-0.285
4.742,-0.305
4.75,-0.335
4.758,-0.305
4.766,-0.275
4.773,-0.275
4.781,-0.305
4.789,-0.235
4.797,-0.235
4.805,-0.215
4.812,-0.205
4.82,-0.175
4.828,-0.155
4.836,-0.135
4.844,-0.155
4.852,-0.095
4.859,-0.105
4.867,-0.155
4.875,-0.135
4.883,-0.105
4.891,-0.145
4.898,-0.135
4.906,-0.195
4.914,-0.165
4.922,-0.115
4.93,-0.105
4.938,-0.125
4.945,-0.085
4.953,-0.075
4.961,-0.075
4.969,-0.075
4.977,-0.105
4.984,-0.135
4.992,-0.125
5,-0.115
5.008,-0.095
5.016,-0.115
5.023,-0.135
5.031,-0.075
5.039,-0.095
5.047,-0.105
5.055,-0.115
5.062,-0.105
5.07,-0.105
5.078,-0.095
5.086,-0.085
5.094,-0.075
5.102,-0.095
5.109,-0.095
5.117,-0.035
5.125,-0.005
5.133,-0.055
5.141,-0.015
5.148,0.085
5.156,0.045
5.164,-0.005
5.172,-0.065
5.18,-0.055
5.188,-0.055
5.195,-0.085
5.203,-0.125
5.211,-0.185
5.219,-0.125
5.227,-0.145
5.234,-0.155
5.242,-0.125
5.25,-0.155
5.258,-0.735
5.266,-0.715
5.273,0.385
5.281,2.005
5.289,2.805
5.297,2.735
5.305,1.635
5.312,0.075
5.32,-0.205
5.328,-0.215
5.336,-0.225
5.344,-0.275
5.352,-0.305
5.359,-0.285
5.367,-0.275
5.375,-0.265
5.383,-0.255
5.391,-0.275
5.398,-0.225
5.406,-0.175
5.414,-0.195
5.422,-0.175
5.43,-0.125
5.438,-0.075
5.445,-0.105
5.453,-0.075
5.461,-0.125
5.469,-0.095
5.477,-0.045
5.484,-0.085
5.492,-0.145
5.5,-0.185
5.508,-0.255
5.516,-0.205
5.523,-0.175
5.531,-0.145
5.539,-0.165
5.547,-0.115
5.555,-0.085
5.562,-0.085
5.57,-0.105
5.578,-0.115
5.586,-0.105
5.594,-0.135
5.602,-0.145
5.609,-0.105
5.617,-0.125
5.625,-0.135
5.633,-0.115
5.641,-0.105
5.648,-0.125
5.656,-0.125
5.664,-0.165
5.672,-0.095
5.68,-0.075
5.688,-0.105
5.695,-0.125
5.703,-0.135
5.711,-0.115
5.719,-0.115
5.727,-0.115
5.734,-0.035
5.742,-0.045
5.75,-0.065
5.758,0.025
5.766,0.045
5.773,-0.025
5.781,-0.075
5.789,-0.105
5.797,-0.115
5.805,-0.115
5.812,-0.145
5.82,-0.175
5.828,-0.195
5.836,-0.255
5.844,-0.185
5.852,-0.155
5.859,-0.135
5.867,-0.405
5.875,-0.805
5.883,-0.445
5.891,1.025
5.898,2.465
5.906,2.855
5.914,2.465
5.922,0.995
5.93,-0.105
5.938,-0.225
5.945,-0.265
5.953,-0.295
5.961,-0.335
5.969,-0.325
5.977,-0.325
5.984,-0.335
5.992,-0.305
6,-0.295
6.008,-0.255
6.016,-0.255
6.023,-0.225
6.031,-0.205
6.039,-0.205
6.047,-0.185
6.055,-0.155
6.062,-0.135
6.07,-0.105
6.078,-0.095
6.086,-0.125
6.094,-0.135
6.102,-0.175
6.109,-0.185
6.117,-0.155
6.125,-0.205
6.133,-0.215
6.141,-0.195
6.148,-0.155
6.156,-0.125
6.164,-0.155
6.172,-0.115
6.18,-0.125
6.188,-0.135
6.195,-0.165
6.203,-0.145
6.211,-0.165
6.219,-0.115
6.227,-0.115
6.234,-0.115
6.242,-0.135
6.25,-0.145
6.258,-0.145
6.266,-0.125
6.273,-0.125
6.281,-0.095
6.289,-0.095
6.297,-0.105
6.305,-0.115
6.312,-0.135
6.32,-0.135
6.328,-0.115
6.336,-0.145
6.344,-0.085
6.352,-0.045
6.359,-0.065
6.367,-0.065
6.375,0.065
6.383,0.045
6.391,0.005
6.398,-0.055
6.406,-0.095
6.414,-0.105
6.422,-0.135
6.43,-0.155
6.438,-0.205
6.445,-0.195
6.453,-0.195
6.461,-0.195
6.469,-0.175
6.477,-0.195
6.484,-0.305
6.492,-0.815
6.5,-0.615
6.508,0.655
6.516,2.305
6.523,2.765
6.531,2.475
6.539,1.085
6.547,-0.155
6.555,-0.295
6.562,-0.255
6.57,-0.305
6.578,-0.315
6.586,-0.335
6.594,-0.335
6.602,-0.315
6.609,-0.315
6.617,-0.285
6.625,-0.265
6.633,-0.255
6.641,-0.255
6.648,-0.215
6.656,-0.185
6.664,-0.145
6.672,-0.165
6.68,-0.145
6.688,-0.125
6.695,-0.125
6.703,-0.095
6.711,-0.125
6.719,-0.155
6.727,-0.145
6.734,-0.205
6.742,-0.215
6.75,-0.215
6.758,-0.175
6.766,-0.195
6.773,-0.085
6.781,-0.055
6.789,-0.095
6.797,-0.085
6.805,-0.115
6.812,-0.125
6.82,-0.115
6.828,-0.125
6.836,-0.145
6.844,-0.125
6.852,-0.105
6.859,-0.105
6.867,-0.115
6.875,-0.105
6.883,-0.075
6.891,-0.085
6.898,-0.095
6.906,-0.095
6.914,-0.075
6.922,-0.085
6.93,-0.105
6.938,-0.095
6.945,-0.085
6.953,-0.085
6.961,-0.095
6.969,-0.115
6.977,-0.085
6.984,-0.105
6.992,-0.055
7,-0.045
7.008,-0.005
7.016,0.015
7.023,0.065
7.031,0.035
7.039,0.015
7.047,-0.025
7.055,-0.045
7.062,-0.085
7.07,-0.075
7.078,-0.105
7.086,-0.155
7.094,-0.185
7.102,-0.145
7.109,-0.135
7.117,-0.145
7.125,-0.115
7.133,-0.645
7.141,-0.675
7.148,0.275
7.156,1.925
7.164,2.745
7.172,2.535
7.18,1.725
7.188,0.045
7.195,-0.335
7.203,-0.265
7.211,-0.265
7.219,-0.285
7.227,-0.285
7.234,-0.315
7.242,-0.295
7.25,-0.275
7.258,-0.275
7.266,-0.265
7.273,-0.235
7.281,-0.225
7.289,-0.195
7.297,-0.175
7.305,-0.155
7.312,-0.145
7.32,-0.205
7.328,-0.125
7.336,-0.105
7.344,-0.105
7.352,-0.095
7.359,-0.125
7.367,-0.115
7.375,-0.145
7.383,-0.165
7.391,-0.145
7.398,-0.135
7.406,-0.085
7.414,-0.065
7.422,-0.065
7.43,-0.085
7.438,-0.095
7.445,-0.085
7.453,-0.075
7.461,-0.115
7.469,-0.115
7.477,-0.135
7.484,-0.105
7.492,-0.145
7.5,-0.115
7.508,-0.125
7.516,-0.135
7.523,-0.125
7.531,-0.145
7.539,-0.085
7.547,-0.095
7.555,-0.145
7.562,-0.105
7.57,-0.105
7.578,-0.105
7.586,-0.145
7.594,-0.105
7.602,-0.135
7.609,-0.125
7.617,-0.085
7.625,-0.075
7.633,-0.085
7.641,-0.105
7.648,0.005
7.656,0.065
7.664,-0.015
7.672,-0.085
7.68,-0.105
7.688,-0.105
7.695,-0.105
7.703,-0.155
7.711,-0.165
7.719,-0.185
7.727,-0.195
7.734,-0.185
7.742,-0.185
7.75,-0.165
7.758,-0.165
7.766,-0.745
7.773,-0.685
7.781,0.545
7.789,2.165
7.797,2.835
7.805,2.635
7.812,1.655
7.82,-0.015
7.828,-0.415
7.836,-0.245
7.844,-0.295
7.852,-0.335
7.859,-0.325
7.867,-0.325
7.875,-0.335
7.883,-0.315
7.891,-0.285
7.898,-0.255
7.906,-0.265
7.914,-0.265
7.922,-0.215
7.93,-0.205
7.938,-0.195
7.945,-0.165
7.953,-0.125
7.961,-0.145
7.969,-0.155
7.977,-0.145
7.984,-0.125
7.992,-0.215
8,-0.165
8.008,-0.175
8.016,-0.195
8.023,-0.165
8.031,-0.155
8.039,-0.125
8.047,-0.095
8.055,-0.105
8.062,-0.095
8.07,-0.135
8.078,-0.135
8.086,-0.135
8.094,-0.165
8.102,-0.135
8.109,-0.135
8.117,-0.135
8.125,-0.145
8.133,-0.145
8.141,-0.135
8.148,-0.145
8.156,-0.125
8.164,-0.115
8.172,-0.105
8.18,-0.135
8.188,-0.115
8.195,-0.105
8.203,-0.145
8.211,-0.135
8.219,-0.135
8.227,-0.125
8.234,-0.125
8.242,-0.085
8.25,-0.075
8.258,-0.065
8.266,0.015
8.273,0.045
8.281,0.005
8.289,-0.035
8.297,-0.085
8.305,-0.115
8.312,-0.115
8.32,-0.125
8.328,-0.145
8.336,-0.195
8.344,-0.205
8.352,-0.175
8.359,-0.145
8.367,-0.155
8.375,-0.265
8.383,-0.755
8.391,-0.545
8.398,0.695
8.406,2.195
8.414,2.715
8.422,2.535
8.43,1.145
8.438,-0.135
8.445,-0.245
8.453,-0.215
8.461,-0.265
8.469,-0.355
8.477,-0.335
8.484,-0.305
8.492,-0.315
8.5,-0.295
8.508,-0.295
8.516,-0.275
8.523,-0.255
8.531,-0.255
8.539,-0.205
8.547,-0.165
8.555,-0.145
8.562,-0.145
8.57,-0.125
8.578,-0.105
8.586,-0.115
8.594,-0.135
8.602,-0.135
8.609,-0.125
8.617,-0.185
8.625,-0.215
8.633,-0.235
8.641,-0.205
8.648,-0.195
8.656,-0.165
8.664,-0.135
8.672,-0.135
8.68,-0.125
8.688,-0.135
8.695,-0.135
8.703,-0.135
8.711,-0.145
8.719,-0.135
8.727,-0.135
8.734,-0.135
8.742,-0.125
8.75,-0.115
8.758,-0.145
8.766,-0.105
8.773,-0.115
8.781,-0.135
8.789,-0.135
8.797,-0.095
8.805,-0.125
8.812,-0.155
8.82,-0.135
8.828,-0.135
8.836,-0.115
8.844,-0.135
8.852,-0.105
8.859,-0.085
8.867,-0.025
8.875,-0.045
8.883,-0.105
8.891,-0.005
8.898,0.075
8.906,-0.005
8.914,-0.045
8.922,-0.105
8.93,-0.095
8.938,-0.125
8.945,-0.095
8.953,-0.135
8.961,-0.205
8.969,-0.195
8.977,-0.185
8.984,-0.175
8.992,-0.185
9,-0.145
9.008,-0.675
9.016,-0.765
9.023,0.335
9.031,2.115
9.039,2.855
9.047,2.615
9.055,1.305
9.062,-0.095
9.07,-0.265
9.078,-0.265
9.086,-0.285
9.094,-0.325
9.102,-0.355
9.109,-0.305
9.117,-0.325
9.125,-0.305
9.133,-0.305
9.141,-0.285
9.148,-0.245
9.156,-0.235
9.164,-0.205
9.172,-0.225
9.18,-0.135
9.188,-0.175
9.195,-0.125
9.203,-0.075
9.211,-0.085
9.219,-0.095
9.227,-0.105
9.234,-0.145
9.242,-0.115
9.25,-0.185
9.258,-0.195
9.266,-0.195
9.273,-0.205
9.281,-0.135
9.289,-0.105
9.297,-0.135
9.305,-0.105
9.312,-0.135
9.32,-0.135
9.328,-0.155
9.336,-0.135
9.344,-0.125
9.352,-0.135
9.359,-0.185
9.367,-0.165
9.375,-0.125
9.383,-0.145
9.391,-0.115
9.398,-0.125
9.406,-0.165
9.414,-0.125
9.422,-0.155
9.43,-0.145
9.438,-0.165
9.445,-0.145
9.453,-0.135
9.461,-0.155
9.469,-0.155
9.477,-0.175
9.484,-0.145
9.492,-0.175
9.5,-0.145
9.508,-0.095
9.516,-0.055
9.523,-0.085
9.531,-0.055
9.539,0.055
9.547,-0.045
9.555,-0.075
9.562,-0.105
9.57,-0.105
9.578,-0.135
9.586,-0.195
9.594,-0.195
9.602,-0.205
9.609,-0.185
9.617,-0.195
9.625,-0.205
9.633,-0.195
9.641,-0.175
9.648,-0.565
9.656,-0.735
9.664,0.045
9.672,1.855
9.68,2.745
9.688,2.595
9.695,1.645
9.703,0.085
9.711,-0.305
9.719,-0.275
9.727,-0.285
9.734,-0.335
9.742,-0.355
9.75,-0.355
9.758,-0.335
9.766,-0.355
9.773,-0.315
9.781,-0.295
9.789,-0.275
9.797,-0.235
9.805,-0.235
9.812,-0.225
9.82,-0.205
9.828,-0.185
9.836,-0.185
9.844,-0.165
9.852,-0.125
9.859,-0.135
9.867,-0.135
9.875,-0.145
9.883,-0.145
9.891,-0.175
9.898,-0.205
9.906,-0.185
9.914,-0.205
9.922,-0.125
9.93,-0.105
9.938,-0.115
9.945,-0.095
9.953,-0.125
9.961,-0.115
9.969,-0.135
9.977,-0.155
9.984,-0.155
9.992,-0.165
10,-0.145
10.008,-0.125
10.016,-0.145
10.023,-0.155
10.031,-0.165
10.039,-0.145
10.047,-0.185
10.055,-0.155
10.062,-0.135
10.07,-0.145
10.078,-0.135
10.086,-0.145
10.094,-0.165
10.102,-0.165
10.109,-0.165
10.117,-0.135
10.125,-0.145
10.133,-0.175
10.141,-0.165
10.148,-0.125
10.156,-0.135
10.164,-0.155
10.172,-0.095
10.18,-0.055
10.188,0.025
10.195,-0.015
10.203,-0.095
10.211,-0.135
10.219,-0.085
10.227,-0.135
10.234,-0.145
10.242,-0.195
10.25,-0.215
10.258,-0.255
10.266,-0.235
10.273,-0.185
10.281,-0.205
10.289,-0.215
10.297,-0.645
10.305,-0.725
10.312,0.095
10.32,1.815
10.328,2.635
10.336,2.475
10.344,1.575
10.352,-0.035
10.359,-0.395
10.367,-0.325
10.375,-0.325
10.383,-0.335
10.391,-0.345
10.398,-0.355
10.406,-0.365
10.414,-0.355
10.422,-0.335
10.43,-0.295
10.438,-0.295
10.445,-0.295
10.453,-0.265
10.461,-0.235
10.469,-0.235
10.477,-0.215
10.484,-0.205
10.492,-0.205
10.5,-0.205
10.508,-0.175
10.516,-0.155
10.523,-0.185
10.531,-0.205
10.539,-0.205
10.547,-0.235
10.555,-0.215
10.562,-0.215
10.57,-0.145
10.578,-0.145
10.586,-0.125
10.594,-0.165
10.602,-0.155
10.609,-0.195
10.617,-0.195
10.625,-0.215
10.633,-0.165
10.641,-0.215
10.648,-0.195
10.656,-0.185
10.664,-0.155
10.672,-0.175
10.68,-0.175
10.688,-0.215
10.695,-0.185
10.703,-0.195
10.711,-0.195
10.719,-0.215
10.727,-0.205
10.734,-0.155
10.742,-0.155
10.75,-0.215
10.758,-0.235
10.766,-0.205
10.773,-0.195
10.781,-0.185
10.789,-0.175
10.797,-0.135
10.805,-0.105
10.812,-0.155
10.82,-0.095
10.828,0.005
10.836,-0.085
10.844,-0.095
10.852,-0.135
10.859,-0.125
10.867,-0.175
10.875,-0.205
10.883,-0.215
10.891,-0.255
10.898,-0.265
10.906,-0.275
10.914,-0.215
10.922,-0.225
10.93,-0.195
10.938,-0.645
10.945,-0.755
10.953,0.105
10.961,1.695
10.969,2.675
10.977,2.645
10.984,2.185
10.992,0.435
11,-0.365
11.008,-0.295
11.016,-0.375
11.023,-0.375
11.031,-0.355
11.039,-0.355
11.047,-0.395
11.055,-0.365
11.062,-0.325
11.07,-0.295
11.078,-0.295
11.086,-0.285
11.094,-0.275
11.102,-0.245
11.109,-0.255
11.117,-0.205
11.125,-0.225
11.133,-0.215
11.141,-0.155
11.148,-0.135
11.156,-0.155
11.164,-0.165
11.172,-0.175
11.18,-0.205
11.188,-0.205
11.195,-0.245
11.203,-0.215
11.211,-0.215
11.219,-0.175
11.227,-0.135
11.234,-0.135
11.242,-0.145
11.25,-0.145
11.258,-0.185
11.266,-0.195
11.273,-0.195
11.281,-0.165
11.289,-0.175
11.297,-0.175
11.305,-0.185
11.312,-0.215
11.32,-0.165
11.328,-0.155
11.336,-0.175
11.344,-0.205
11.352,-0.175
11.359,-0.175
11.367,-0.155
11.375,-0.175
11.383,-0.185
11.391,-0.195
11.398,-0.175
11.406,-0.175
11.414,-0.205
11.422,-0.145
11.43,-0.105
11.438,-0.105
11.445,-0.115
11.453,-0.015
11.461,-0.025
11.469,-0.095
11.477,-0.125
11.484,-0.145
11.492,-0.165
11.5,-0.195
11.508,-0.175
11.516,-0.225
11.523,-0.225
11.531,-0.235
11.539,-0.235
11.547,-0.225
11.555,-0.205
11.562,-0.465
11.57,-0.885
11.578,-0.295
11.586,1.335
11.594,2.625
11.602,2.755
11.609,2.255
11.617,0.485
11.625,-0.325
11.633,-0.255
11.641,-0.285
11.648,-0.335
11.656,-0.375
11.664,-0.415
11.672,-0.375
11.68,-0.345
11.688,-0.335
11.695,-0.355
11.703,-0.315
11.711,-0.265
11.719,-0.245
11.727,-0.225
11.734,-0.215
11.742,-0.235
11.75,-0.185
11.758,-0.165
11.766,-0.165
11.773,-0.135
11.781,-0.145
11.789,-0.145
11.797,-0.165
11.805,-0.195
11.812,-0.225
11.82,-0.235
11.828,-0.235
11.836,-0.215
11.844,-0.205
11.852,-0.185
11.859,-0.175
11.867,-0.125
11.875,-0.165
11.883,-0.185
11.891,-0.205
11.898,-0.185
11.906,-0.175
11.914,-0.185
11.922,-0.165
11.93,-0.185
11.938,-0.165
11.945,-0.175
11.953,-0.165
11.961,-0.155
11.969,-0.165
11.977,-0.135
11.984,-0.185
11.992,-0.165
12,-0.165
12.008,-0.145
12.016,-0.125
12.023,-0.165
12.031,-0.175
12.039,-0.195
12.047,-0.145
12.055,-0.125
12.062,-0.085
12.07,-0.105
12.078,-0.085
12.086,0.005
12.094,-0.005
12.102,-0.045
12.109,-0.085
12.117,-0.135
12.125,-0.125
12.133,-0.135
12.141,-0.155
12.148,-0.235
12.156,-0.255
12.164,-0.215
12.172,-0.195
12.18,-0.205
12.188,-0.195
12.195,-0.325
12.203,-0.765
12.211,-0.545
12.219,0.825
12.227,2.475
12.234,2.855
12.242,2.355
12.25,0.785
12.258,-0.235
12.266,-0.275
12.273,-0.295
12.281,-0.335
12.289,-0.365
12.297,-0.375
12.305,-0.355
12.312,-0.355
12.32,-0.305
12.328,-0.285
12.336,-0.275
12.344,-0.265
12.352,-0.255
12.359,-0.225
12.367,-0.215
12.375,-0.155
12.383,-0.155
12.391,-0.115
12.398,-0.115
12.406,-0.125
12.414,-0.095
12.422,-0.085
12.43,-0.125
12.438,-0.125
12.445,-0.135
12.453,-0.175
12.461,-0.155
12.469,-0.115
12.477,-0.095
12.484,-0.085
12.492,-0.115
12.5,-0.095
12.508,-0.105
12.516,-0.125
12.523,-0.125
12.531,-0.185
12.539,-0.115
12.547,-0.105
12.555,-0.115
12.562,-0.115
12.57,-0.145
12.578,-0.115
12.586,-0.115
12.594,-0.115
12.602,-0.145
12.609,-0.125
12.617,-0.105
12.625,-0.115
12.633,-0.135
12.641,-0.185
12.648,-0.125
12.656,-0.115
12.664,-0.105
12.672,-0.185
12.68,-0.055
12.688,-0.045
12.695,-0.075
12.703,-0.035
12.711,0.055
12.719,0.025
12.727,-0.035
12.734,-0.115
12.742,-0.115
12.75,-0.135
12.758,-0.105
12.766,-0.155
12.773,-0.215
12.781,-0.225
12.789,-0.215
12.797,-0.175
12.805,-0.145
12.812,-0.155
12.82,-0.675
12.828,-0.785
12.836,0.045
12.844,1.695
12.852,2.735
12.859,2.635
12.867,2.155
12.875,0.425
12.883,-0.415
12.891,-0.345
12.898,-0.305
12.906,-0.345
12.914,-0.355
12.922,-0.355
12.93,-0.365
12.938,-0.325
12.945,-0.305
12.953,-0.305
12.961,-0.305
12.969,-0.285
12.977,-0.255
12.984,-0.255
12.992,-0.275
13,-0.195
13.008,-0.195
13.016,-0.155
13.023,-0.165
13.031,-0.165
13.039,-0.175
13.047,-0.175
13.055,-0.205
13.062,-0.225
13.07,-0.215
13.078,-0.235
13.086,-0.205
13.094,-0.165
13.102,-0.165
13.109,-0.135
13.117,-0.165
13.125,-0.155
13.133,-0.125
13.141,-0.125
13.148,-0.185
13.156,-0.225
13.164,-0.175
13.172,-0.165
13.18,-0.185
13.188,-0.185
13.195,-0.195
13.203,-0.185
13.211,-0.195
13.219,-0.145
13.227,-0.175
13.234,-0.205
13.242,-0.155
13.25,-0.145
13.258,-0.205
13.266,-0.175
13.273,-0.165
13.281,-0.215
13.289,-0.175
13.297,-0.165
13.305,-0.105
13.312,-0.135
13.32,-0.095
13.328,0.025
13.336,-0.035
13.344,-0.095
13.352,-0.105
13.359,-0.155
13.367,-0.145
13.375,-0.175
13.383,-0.205
13.391,-0.215
13.398,-0.245
13.406,-0.215
13.414,-0.235
13.422,-0.195
13.43,-0.205
13.438,-0.325
13.445,-0.885
13.453,-0.635
13.461,0.665
13.469,2.325
13.477,2.855
13.484,2.585
13.492,1.305
13.5,-0.105
13.508,-0.345
13.516,-0.275
13.523,-0.325
13.531,-0.385
13.539,-0.405
13.547,-0.375
13.555,-0.365
13.562,-0.355
13.57,-0.285
13.578,-0.285
13.586,-0.285
13.594,-0.285
13.602,-0.265
13.609,-0.225
13.617,-0.235
13.625,-0.195
13.633,-0.195
13.641,-0.185
13.648,-0.115
13.656,-0.135
13.664,-0.145
13.672,-0.195
13.68,-0.185
13.688,-0.295
13.695,-0.275
13.703,-0.235
13.711,-0.265
13.719,-0.255
13.727,-0.175
13.734,-0.125
13.742,-0.145
13.75,-0.155
13.758,-0.155
13.766,-0.145
13.773,-0.195
13.781,-0.185
13.789,-0.205
13.797,-0.185
13.805,-0.245
13.812,-0.215
13.82,-0.175
13.828,-0.185
13.836,-0.155
13.844,-0.175
13.852,-0.175
13.859,-0.165
13.867,-0.175
13.875,-0.185
13.883,-0.185
13.891,-0.185
13.898,-0.195
13.906,-0.195
13.914,-0.185
13.922,-0.125
13.93,-0.125
13.938,-0.175
13.945,-0.065
13.953,-0.005
13.961,-0.105
13.969,-0.145
13.977,-0.165
13.984,-0.155
13.992,-0.195
14,-0.225
14.008,-0.245
14.016,-0.275
14.023,-0.285
14.031,-0.265
14.039,-0.265
14.047,-0.195
14.055,-0.445
14.062,-0.905
14.07,-0.425
14.078,1.225
14.086,2.635
14.094,2.955
14.102,2.415
14.109,0.705
14.117,-0.275
14.125,-0.315
14.133,-0.325
14.141,-0.365
14.148,-0.415
14.156,-0.405
14.164,-0.405
14.172,-0.395
14.18,-0.335
14.188,-0.335
14.195,-0.365
14.203,-0.325
14.211,-0.265
14.219,-0.295
14.227,-0.255
14.234,-0.205
14.242,-0.175
14.25,-0.205
14.258,-0.165
14.266,-0.145
14.273,-0.165
14.281,-0.175
14.289,-0.185
14.297,-0.205
14.305,-0.235
14.312,-0.245
14.32,-0.225
14.328,-0.215
14.336,-0.235
14.344,-0.155
14.352,-0.135
14.359,-0.135
14.367,-0.165
14.375,-0.175
14.383,-0.185
14.391,-0.175
14.398,-0.185
14.406,-0.205
14.414,-0.155
14.422,-0.155
14.43,-0.155
14.438,-0.175
14.445,-0.175
14.453,-0.145
14.461,-0.135
14.469,-0.135
14.477,-0.135
14.484,-0.115
14.492,-0.155
14.5,-0.125
14.508,-0.135
14.516,-0.155
14.523,-0.135
14.531,-0.125
14.539,-0.105
14.547,-0.065
14.555,-0.055
14.562,-0.075
14.57,-0.005
14.578,-0.005
14.586,-0.035
14.594,-0.075
14.602,-0.095
14.609,-0.095
14.617,-0.135
14.625,-0.125
14.633,-0.155
14.641,-0.175
14.648,-0.165
14.656,-0.175
14.664,-0.155
14.672,-0.125
14.68,-0.185
14.688,-0.655
14.695,-0.605
14.703,0.505
14.711,1.815
14.719,2.175
14.727,1.925
14.734,0.775
14.742,-0.125
14.75,-0.225
14.758,-0.215
14.766,-0.255
14.773,-0.315
14.781,-0.335
14.789,-0.315
14.797,-0.305
14.805,-0.315
14.812,-0.295
14.82,-0.285
14.828,-0.285
14.836,-0.215
14.844,-0.205
14.852,-0.195
14.859,-0.215
14.867,-0.205
14.875,-0.165
14.883,-0.175
14.891,-0.125
14.898,-0.155
14.906,-0.195
14.914,-0.185
14.922,-0.185
14.93,-0.145
14.938,-0.185
14.945,-0.175
14.953,-0.125
14.961,-0.115
14.969,-0.125
14.977,-0.115
14.984,-0.135
14.992,-0.165
15,-0.175
15.008,-0.165
15.016,-0.145
15.023,-0.195
15.031,-0.215
15.039,-0.195
15.047,-0.175
15.055,-0.155
15.062,-0.205
15.07,-0.165
15.078,-0.155
15.086,-0.165
15.094,-0.165
15.102,-0.185
15.109,-0.155
15.117,-0.175
15.125,-0.175
15.133,-0.215
15.141,-0.175
15.148,-0.155
15.156,-0.165
15.164,-0.125
15.172,-0.115
15.18,-0.055
15.188,0.025
15.195,-0.045
15.203,-0.135
15.211,-0.155
15.219,-0.145
15.227,-0.255
15.234,-0.165
15.242,-0.195
15.25,-0.245
15.258,-0.245
15.266,-0.235
15.273,-0.255
15.281,-0.225
15.289,-0.235
15.297,-0.825
15.305,-0.755
15.312,0.335
15.32,1.975
15.328,2.725
15.336,2.485
15.344,1.745
15.352,0.045
15.359,-0.445
15.367,-0.325
15.375,-0.345
15.383,-0.375
15.391,-0.385
15.398,-0.395
15.406,-0.375
15.414,-0.345
15.422,-0.325
15.43,-0.335
15.438,-0.315
15.445,-0.285
15.453,-0.255
15.461,-0.275
15.469,-0.275
15.477,-0.225
15.484,-0.205
15.492,-0.225
15.5,-0.215
15.508,-0.195
15.516,-0.175
15.523,-0.195
15.531,-0.245
15.539,-0.225
15.547,-0.245
15.555,-0.235
15.562,-0.215
15.57,-0.155
15.578,-0.135
15.586,-0.155
15.594,-0.155
15.602,-0.125
15.609,-0.175
15.617,-0.195
15.625,-0.175
15.633,-0.175
15.641,-0.175
15.648,-0.175
15.656,-0.215
15.664,-0.185
15.672,-0.155
15.68,-0.195
15.688,-0.175
15.695,-0.175
15.703,-0.185
15.711,-0.155
15.719,-0.205
15.727,-0.185
15.734,-0.175
15.742,-0.145
15.75,-0.225
15.758,-0.165
15.766,-0.105
15.773,-0.125
15.781,-0.125
15.789,-0.045
15.797,-0.015
15.805,-0.045
15.812,-0.085
15.82,-0.185
15.828,-0.175
15.836,-0.165
15.844,-0.175
15.852,-0.215
15.859,-0.225
15.867,-0.235
15.875,-0.235
15.883,-0.235
15.891,-0.205
15.898,-0.305
15.906,-0.925
15.914,-0.745
15.922,0.525
15.93,2.195
15.938,2.775
15.945,2.555
15.953,1.315
15.961,-0.105
15.969,-0.325
15.977,-0.265
15.984,-0.315
15.992,-0.365
16,-0.385
16.008,-0.385
16.016,-0.345
16.023,-0.375
16.031,-0.345
16.039,-0.315
16.047,-0.315
16.055,-0.335
16.062,-0.255
16.07,-0.235
16.078,-0.215
16.086,-0.215
16.094,-0.195
16.102,-0.175
16.109,-0.165
16.117,-0.185
16.125,-0.165
16.133,-0.175
16.141,-0.225
16.148,-0.255
16.156,-0.255
16.164,-0.255
16.172,-0.255
16.18,-0.225
16.188,-0.215
16.195,-0.185
16.203,-0.185
16.211,-0.175
16.219,-0.155
16.227,-0.185
16.234,-0.175
16.242,-0.185
16.25,-0.245
16.258,-0.195
16.266,-0.175
16.273,-0.185
16.281,-0.175
16.289,-0.185
16.297,-0.175
16.305,-0.205
16.312,-0.215
16.32,-0.175
16.328,-0.165
16.336,-0.155
16.344,-0.175
16.352,-0.175
16.359,-0.195
16.367,-0.185
16.375,-0.125
16.383,-0.115
16.391,-0.115
16.398,-0.115
16.406,0.005
16.414,-0.035
16.422,-0.105
16.43,-0.135
16.438,-0.155
16.445,-0.165
16.453,-0.195
16.461,-0.245
16.469,-0.225
16.477,-0.235
16.484,-0.285
16.492,-0.225
16.5,-0.205
16.508,-0.215
16.516,-0.735
16.523,-0.835
16.531,0.075
16.539,1.785
16.547,2.745
16.555,2.605
16.562,1.675
16.57,0.135
16.578,-0.315
16.586,-0.285
16.594,-0.365
16.602,-0.375
16.609,-0.355
16.617,-0.375
16.625,-0.375
16.633,-0.385
16.641,-0.335
16.648,-0.335
16.656,-0.305
16.664,-0.295
16.672,-0.255
16.68,-0.225
16.688,-0.225
16.695,-0.205
16.703,-0.185
16.711,-0.175
16.719,-0.165
16.727,-0.145
16.734,-0.175
16.742,-0.155
16.75,-0.175
16.758,-0.235
16.766,-0.225
16.773,-0.205
16.781,-0.225
16.789,-0.215
16.797,-0.165
16.805,-0.155
16.812,-0.155
16.82,-0.205
16.828,-0.125
16.836,-0.175
16.844,-0.165
16.852,-0.185
16.859,-0.155
16.867,-0.155
16.875,-0.165
16.883,-0.175
16.891,-0.155
16.898,-0.165
16.906,-0.175
16.914,-0.145
16.922,-0.145
16.93,-0.155
16.938,-0.165
16.945,-0.135
16.953,-0.165
16.961,-0.175
16.969,-0.135
16.977,-0.145
16.984,-0.165
16.992,-0.125
17,-0.105
17.008,-0.085
17.016,-0.085
17.023,-0.085
17.031,0.035
17.039,0.025
17.047,-0.045
17.055,-0.095
17.062,-0.115
17.07,-0.115
17.078,-0.135
17.086,-0.155
17.094,-0.205
17.102,-0.215
17.109,-0.195
17.117,-0.195
17.125,-0.195
17.133,-0.175
17.141,-0.325
17.148,-0.845
17.156,-0.585
17.164,1.055
17.172,2.595
17.18,2.755
17.188,2.315
17.195,0.725
17.203,-0.265
17.211,-0.265
17.219,-0.315
17.227,-0.305
17.234,-0.305
17.242,-0.375
17.25,-0.325
17.258,-0.305
17.266,-0.315
17.273,-0.265
17.281,-0.275
17.289,-0.265
17.297,-0.245
17.305,-0.235
17.312,-0.175
17.32,-0.145
17.328,-0.135
17.336,-0.125
17.344,-0.115
17.352,-0.125
17.359,-0.135
17.367,-0.105
17.375,-0.125
17.383,-0.145
17.391,-0.175
17.398,-0.175
17.406,-0.155
17.414,-0.105
17.422,-0.095
17.43,-0.065
17.438,-0.065
17.445,-0.095
17.453,-0.095
17.461,-0.125
17.469,-0.095
17.477,-0.125
17.484,-0.085
17.492,-0.125
17.5,-0.115
17.508,-0.125
17.516,-0.105
17.523,-0.105
17.531,-0.095
17.539,-0.115
17.547,-0.085
17.555,-0.115
17.562,-0.155
17.57,-0.115
17.578,-0.105
17.586,-0.095
17.594,-0.105
17.602,-0.095
17.609,-0.105
17.617,-0.115
17.625,-0.095
17.633,-0.065
17.641,-0.045
17.648,-0.065
17.656,0.005
17.664,0.025
17.672,-0.005
17.68,-0.045
17.688,-0.105
17.695,-0.095
17.703,-0.145
17.711,-0.155
17.719,-0.165
17.727,-0.185
17.734,-0.195
17.742,-0.205
17.75,-0.225
17.758,-0.205
17.766,-0.225
17.773,-0.765
17.781,-0.655
17.789,0.475
17.797,2.165
17.805,2.655
17.812,2.465
17.82,1.485
17.828,-0.055
17.836,-0.405
17.844,-0.275
17.852,-0.315
17.859,-0.345
17.867,-0.345
17.875,-0.375
17.883,-0.365
17.891,-0.355
17.898,-0.355
17.906,-0.315
17.914,-0.285
17.922,-0.245
17.93,-0.225
17.938,-0.215
17.945,-0.255
17.953,-0.215
17.961,-0.175
17.969,-0.185
17.977,-0.165
17.984,-0.145
17.992,-0.175
18,-0.195
18.008,-0.195
18.016,-0.215
18.023,-0.205
18.031,-0.195
18.039,-0.175
18.047,-0.135
18.055,-0.125
18.062,-0.095
18.07,-0.105
18.078,-0.125
18.086,-0.155
18.094,-0.115
18.102,-0.125
18.109,-0.135
18.117,-0.155
18.125,-0.145
18.133,-0.145
18.141,-0.125
18.148,-0.135
18.156,-0.125
18.164,-0.115
18.172,-0.115
18.18,-0.145
18.188,-0.135
18.195,-0.115
18.203,-0.115
18.211,-0.125
18.219,-0.145
18.227,-0.135
18.234,-0.135
18.242,-0.165
18.25,-0.135
18.258,-0.125
18.266,-0.075
18.273,-0.085
18.281,-0.015
18.289,0.005
18.297,-0.055
18.305,-0.075
18.312,-0.095
18.32,-0.135
18.328,-0.155
18.336,-0.165
18.344,-0.185
18.352,-0.225
18.359,-0.225
18.367,-0.225
18.375,-0.225
18.383,-0.205
18.391,-0.195
18.398,-0.755
18.406,-0.735
18.414,0.355
18.422,2.085
18.43,2.825
18.438,2.655
18.445,1.615
18.453,-0.045
18.461,-0.365
18.469,-0.295
18.477,-0.305
18.484,-0.345
18.492,-0.365
18.5,-0.355
18.508,-0.335
18.516,-0.315
18.523,-0.305
18.531,-0.325
18.539,-0.265
18.547,-0.245
18.555,-0.245
18.562,-0.215
18.57,-0.165
18.578,-0.185
18.586,-0.185
18.594,-0.125
18.602,-0.145
18.609,-0.155
18.617,-0.135
18.625,-0.155
18.633,-0.185
18.641,-0.155
18.648,-0.215
18.656,-0.235
18.664,-0.215
18.672,-0.155
18.68,-0.145
18.688,-0.125
18.695,-0.125
18.703,-0.115
18.711,-0.155
18.719,-0.135
18.727,-0.125
18.734,-0.155
18.742,-0.155
18.75,-0.125
18.758,-0.125
18.766,-0.145
18.773,-0.125
18.781,-0.155
18.789,-0.145
18.797,-0.125
18.805,-0.145
18.812,-0.135
18.82,-0.085
18.828,-0.105
18.836,-0.175
18.844,-0.125
18.852,-0.085
18.859,-0.135
18.867,-0.155
18.875,-0.125
18.883,-0.105
18.891,-0.065
18.898,-0.055
18.906,-0.095
18.914,-0.025
18.922,0.055
18.93,-0.035
18.938,-0.035
18.945,-0.065
18.953,-0.085
18.961,-0.105
18.969,-0.135
18.977,-0.185
18.984,-0.175
18.992,-0.185
19,-0.215
19.008,-0.185
19.016,-0.145
19.023,-0.135
19.031,-0.675
19.039,-0.745
19.047,0.215
19.055,1.955
19.062,2.835
19.07,2.625
19.078,1.495
19.086,-0.035
19.094,-0.275
19.102,-0.275
19.109,-0.245
19.117,-0.325
19.125,-0.315
19.133,-0.325
19.141,-0.315
19.148,-0.295
19.156,-0.245
19.164,-0.275
19.172,-0.265
19.18,-0.215
19.188,-0.205
19.195,-0.185
19.203,-0.165
19.211,-0.135
19.219,-0.125
19.227,-0.125
19.234,-0.065
19.242,-0.085
19.25,-0.115
19.258,-0.085
19.266,-0.145
19.273,-0.155
19.281,-0.165
19.289,-0.185
19.297,-0.155
19.305,-0.145
19.312,-0.135
19.32,-0.125
19.328,-0.105
19.336,-0.105
19.344,-0.125
19.352,-0.135
19.359,-0.095
19.367,-0.135
19.375,-0.155
19.383,-0.135
19.391,-0.105
19.398,-0.135
19.406,-0.095
19.414,-0.125
19.422,-0.105
19.43,-0.115
19.438,-0.115
19.445,-0.095
19.453,-0.105
19.461,-0.135
19.469,-0.085
19.477,-0.105
19.484,-0.115
19.492,-0.115
19.5,-0.115
19.508,-0.105
19.516,-0.125
19.523,-0.125
19.531,-0.105
19.539,-0.065
19.547,-0.025
19.555,-0.075
19.562,-0.045
19.57,0.045
19.578,0.025
19.586,-0.025
19.594,-0.075
19.602,-0.085
19.609,-0.085
19.617,-0.105
19.625,-0.165
19.633,-0.165
19.641,-0.165
19.648,-0.185
19.656,-0.185
19.664,-0.145
19.672,-0.125
19.68,-0.535
19.688,-0.705
19.695,-0.015
19.703,1.785
19.711,2.745
19.719,2.605
19.727,1.695
19.734,0.165
19.742,-0.305
19.75,-0.255
19.758,-0.265
19.766,-0.315
19.773,-0.345
19.781,-0.315
19.789,-0.325
19.797,-0.285
19.805,-0.305
19.812,-0.285
19.82,-0.255
19.828,-0.245
19.836,-0.225
19.844,-0.185
19.852,-0.175
19.859,-0.175
19.867,-0.135
19.875,-0.135
19.883,-0.125
19.891,-0.095
19.898,-0.105
19.906,-0.105
19.914,-0.125
19.922,-0.145
19.93,-0.195
19.938,-0.155
19.945,-0.175
19.953,-0.135
19.961,-0.135
19.969,-0.135
19.977,-0.105
19.984,-0.125
19.992,-0.115
20,-0.135
20.008,-0.155
20.016,-0.135
20.023,-0.135
20.031,-0.175
20.039,-0.155
20.047,-0.145
20.055,-0.135
20.062,-0.155
20.07,-0.135
20.078,-0.105
20.086,-0.125
20.094,-0.115
20.102,-0.125
20.109,-0.125
20.117,-0.115
20.125,-0.105
20.133,-0.115
20.141,-0.115
20.148,-0.135
20.156,-0.135
20.164,-0.115
20.172,-0.125
20.18,-0.125
20.188,-0.135
20.195,-0.075
20.203,-0.065
20.211,-0.045
20.219,-0.005
20.227,0.045
20.234,0.005
20.242,-0.055
20.25,-0.085
20.258,-0.085
20.266,-0.075
20.273,-0.115
20.281,-0.155
20.289,-0.155
20.297,-0.145
20.305,-0.145
20.312,-0.165
20.32,-0.165
20.328,-0.115
20.336,-0.525
20.344,-0.675
20.352,-0.035
20.359,1.635
20.367,2.615
20.375,2.515
20.383,1.975
20.391,0.455
20.398,-0.265
20.406,-0.225
20.414,-0.245
20.422,-0.285
20.43,-0.305
20.438,-0.295
20.445,-0.335
20.453,-0.255
20.461,-0.235
20.469,-0.225
20.477,-0.235
20.484,-0.215
20.492,-0.215
20.5,-0.175
20.508,-0.145
20.516,-0.155
20.523,-0.095
20.531,-0.085
20.539,-0.125
20.547,-0.105
20.555,-0.085
20.562,-0.075
20.57,-0.105
20.578,-0.105
20.586,-0.135
20.594,-0.155
20.602,-0.135
20.609,-0.095
20.617,-0.065
20.625,-0.065
20.633,-0.055
20.641,-0.055
20.648,-0.135
20.656,-0.135
20.664,-0.125
20.672,-0.105
20.68,-0.125
20.688,-0.115
20.695,-0.085
20.703,-0.085
20.711,-0.115
20.719,-0.135
20.727,-0.115
20.734,-0.075
20.742,-0.125
20.75,-0.115
20.758,-0.065
20.766,-0.085
20.773,-0.125
20.781,-0.105
20.789,-0.115
20.797,-0.075
20.805,-0.095
20.812,-0.135
20.82,-0.115
20.828,-0.105
20.836,-0.115
20.844,-0.125
20.852,-0.135
20.859,-0.045
20.867,-0.065
20.875,-0.055
20.883,-0.015
20.891,0.075
20.898,0.025
20.906,-0.045
20.914,-0.085
20.922,-0.065
20.93,-0.085
20.938,-0.065
20.945,-0.105
20.953,-0.155
20.961,-0.165
20.969,-0.165
20.977,-0.185
20.984,-0.135
20.992,-0.095
21,-0.625
21.008,-0.715
21.016,0.305
21.023,1.975
21.031,2.735
21.039,2.575
21.047,1.745
21.055,0.065
21.062,-0.385
21.07,-0.285
21.078,-0.235
21.086,-0.325
21.094,-0.325
21.102,-0.305
21.109,-0.335
21.117,-0.295
21.125,-0.295
21.133,-0.255
21.141,-0.245
21.148,-0.225
21.156,-0.235
21.164,-0.205
21.172,-0.155
21.18,-0.145
21.188,-0.125
21.195,-0.135
21.203,-0.105
21.211,-0.115
21.219,-0.145
21.227,-0.125
21.234,-0.205
21.242,-0.155
21.25,-0.155
21.258,-0.145
21.266,-0.135
21.273,-0.125
21.281,-0.095
21.289,-0.085
21.297,-0.075
21.305,-0.105
21.312,-0.125
21.32,-0.115
21.328,-0.155
21.336,-0.135
21.344,-0.155
21.352,-0.105
21.359,-0.125
21.367,-0.135
21.375,-0.125
21.383,-0.115
21.391,-0.125
21.398,-0.105
21.406,-0.135
21.414,-0.115
21.422,-0.145
21.43,-0.125
21.438,-0.125
21.445,-0.115
21.453,-0.095
21.461,-0.125
21.469,-0.115
21.477,-0.135
21.484,-0.145
21.492,-0.155
21.5,-0.155
21.508,-0.075
21.516,-0.075
21.523,-0.065
21.531,-0.015
21.539,0.045
21.547,-0.015
21.555,-0.085
21.562,-0.065
21.57,-0.065
21.578,-0.115
21.586,-0.135
21.594,-0.175
21.602,-0.205
21.609,-0.225
21.617,-0.205
21.625,-0.165
21.633,-0.115
21.641,-0.145
21.648,-0.725
21.656,-0.665
21.664,0.425
21.672,2.075
21.68,2.805
21.688,2.655
21.695,1.885
21.703,0.215
21.711,-0.375
21.719,-0.255
21.727,-0.255
21.734,-0.285
21.742,-0.335
21.75,-0.355
21.758,-0.325
21.766,-0.295
21.773,-0.325
21.781,-0.295
21.789,-0.265
21.797,-0.215
21.805,-0.225
21.812,-0.225
21.82,-0.185
21.828,-0.185
21.836,-0.135
21.844,-0.115
21.852,-0.115
21.859,-0.115
21.867,-0.125
21.875,-0.145
21.883,-0.125
21.891,-0.085
21.898,-0.185
21.906,-0.185
21.914,-0.175
21.922,-0.155
21.93,-0.155
21.938,-0.095
21.945,-0.115
21.953,-0.135
21.961,-0.125
21.969,-0.125
21.977,-0.145
21.984,-0.135
21.992,-0.155
22,-0.115
22.008,-0.155
22.016,-0.135
22.023,-0.125
22.031,-0.145
22.039,-0.125
22.047,-0.125
22.055,-0.125
22.062,-0.135
22.07,-0.135
22.078,-0.125
22.086,-0.095
22.094,-0.165
22.102,-0.125
22.109,-0.105
22.117,-0.115
22.125,-0.135
22.133,-0.145
22.141,-0.155
22.148,-0.165
22.156,-0.105
22.164,-0.075
22.172,-0.065
22.18,-0.035
22.188,0.045
22.195,-0.035
22.203,-0.065
22.211,-0.075
22.219,-0.115
22.227,-0.135
22.234,-0.105
22.242,-0.175
22.25,-0.245
22.258,-0.225
22.266,-0.185
22.273,-0.185
22.281,-0.185
22.289,-0.145
22.297,-0.645
22.305,-0.775
22.312,0.215
22.32,1.945
22.328,2.815
22.336,2.605
22.344,1.545
22.352,-0.015
22.359,-0.285
22.367,-0.275
22.375,-0.325
22.383,-0.335
22.391,-0.385
22.398,-0.375
22.406,-0.355
22.414,-0.335
22.422,-0.335
22.43,-0.325
22.438,-0.275
22.445,-0.275
22.453,-0.245
22.461,-0.215
22.469,-0.235
22.477,-0.215
22.484,-0.155
22.492,-0.155
22.5,-0.135
22.508,-0.145
22.516,-0.125
22.523,-0.135
22.531,-0.125
22.539,-0.195
22.547,-0.165
22.555,-0.195
22.562,-0.175
22.57,-0.195
22.578,-0.185
22.586,-0.125
22.594,-0.145
22.602,-0.155
22.609,-0.165
22.617,-0.145
22.625,-0.195
22.633,-0.175
22.641,-0.185
22.648,-0.165
22.656,-0.185
22.664,-0.165
22.672,-0.175
22.68,-0.175
22.688,-0.155
22.695,-0.135
22.703,-0.155
22.711,-0.155
22.719,-0.155
22.727,-0.155
22.734,-0.115
22.742,-0.145
22.75,-0.145
22.758,-0.155
22.766,-0.155
22.773,-0.155
22.781,-0.145
22.789,-0.145
22.797,-0.145
22.805,-0.135
22.812,-0.105
22.82,-0.095
22.828,-0.085
22.836,-0.065
22.844,-0.025
22.852,-0.015
22.859,-0.055
22.867,-0.085
22.875,-0.095
22.883,-0.115
22.891,-0.115
22.898,-0.145
22.906,-0.175
22.914,-0.155
22.922,-0.155
22.93,-0.165
22.938,-0.145
22.945,-0.145
22.953,-0.215
22.961,-0.295
22.969,0.065
22.977,0.965
22.984,1.805
22.992,2.005
23,1.645
23.008,0.805
23.016,0.095
23.023,-0.125
23.031,-0.205
23.039,-0.255
23.047,-0.275
23.055,-0.315
23.062,-0.315
23.07,-0.305
23.078,-0.285
23.086,-0.285
23.094,-0.285
23.102,-0.245
23.109,-0.245
23.117,-0.225
23.125,-0.205
23.133,-0.195
23.141,-0.165
23.148,-0.145
23.156,-0.105
23.164,-0.115
23.172,-0.115
23.18,-0.105
23.188,-0.135
23.195,-0.135
23.203,-0.155
23.211,-0.185
23.219,-0.175
23.227,-0.165
23.234,-0.125
23.242,-0.135
23.25,-0.135
23.258,-0.105
23.266,-0.135
23.273,-0.195
23.281,-0.175
23.289,-0.205
23.297,-0.155
23.305,-0.135
23.312,-0.155
23.32,-0.175
23.328,-0.165
23.336,-0.155
23.344,-0.145
23.352,-0.165
23.359,-0.135
23.367,-0.125
23.375,-0.135
23.383,-0.145
23.391,-0.135
23.398,-0.135
23.406,-0.155
23.414,-0.135
23.422,-0.145
23.43,-0.125
23.438,-0.155
23.445,-0.175
23.453,-0.145
23.461,-0.155
23.469,-0.165
23.477,-0.165
23.484,-0.165
23.492,-0.115
23.5,-0.105
23.508,-0.085
23.516,-0.065
23.523,0.005
23.531,0.035
23.539,-0.025
23.547,-0.065
23.555,-0.105
23.562,-0.085
23.57,-0.105
23.578,-0.125
23.586,-0.165
23.594,-0.165
23.602,-0.185
23.609,-0.185
23.617,-0.175
23.625,-0.145
23.633,-0.175
23.641,-0.495
23.648,-0.555
23.656,0.165
23.664,1.555
23.672,2.265
23.68,2.205
23.688,1.595
23.695,0.355
23.703,-0.175
23.711,-0.215
23.719,-0.225
23.727,-0.285
23.734,-0.295
23.742,-0.315
23.75,-0.305
23.758,-0.305
23.766,-0.285
23.773,-0.265
23.781,-0.275
23.789,-0.245
23.797,-0.215
23.805,-0.205
23.812,-0.195
23.82,-0.165
23.828,-0.155
23.836,-0.165
23.844,-0.135
23.852,-0.115
23.859,-0.105
23.867,-0.135
23.875,-0.135
23.883,-0.125
23.891,-0.175
23.898,-0.135
23.906,-0.145
23.914,-0.125
23.922,-0.125
23.93,-0.095
23.938,-0.075
23.945,-0.135
23.953,-0.185
23.961,-0.115
23.969,-0.145
23.977,-0.155
23.984,-0.145
23.992,-0.145
24,-0.165
24.008,-0.175
24.016,-0.175
24.023,-0.165
24.031,-0.165
24.039,-0.175
24.047,-0.125
24.055,-0.155
24.062,-0.155
24.07,-0.185
24.078,-0.165
24.086,-0.185
24.094,-0.175
24.102,-0.175
24.109,-0.175
24.117,-0.195
24.125,-0.185
24.133,-0.125
24.141,-0.155
24.148,-0.165
24.156,-0.115
24.164,-0.095
24.172,-0.115
24.18,-0.065
24.188,0.025
24.195,-0.075
24.203,-0.125
24.211,-0.175
24.219,-0.085
24.227,-0.105
24.234,-0.155
24.242,-0.155
24.25,-0.245
24.258,-0.235
24.266,-0.185
24.273,-0.225
24.281,-0.165
24.289,-0.205
24.297,-0.665
24.305,-0.705
24.312,0.445
24.32,2.135
24.328,2.795
24.336,2.565
24.344,1.515
24.352,-0.125
24.359,-0.415
24.367,-0.315
24.375,-0.335
24.383,-0.345
24.391,-0.365
24.398,-0.315
24.406,-0.295
24.414,-0.295
24.422,-0.265
24.43,-0.255
24.438,-0.265
24.445,-0.255
24.453,-0.225
24.461,-0.175
24.469,-0.175
24.477,-0.175
24.484,-0.145
24.492,-0.155
24.5,-0.115
24.508,-0.095
24.516,-0.105
24.523,-0.115
24.531,-0.115
24.539,-0.155
24.547,-0.145
24.555,-0.165
24.562,-0.195
24.57,-0.105
24.578,-0.075
24.586,-0.075
24.594,-0.125
24.602,-0.125
24.609,-0.135
24.617,-0.145
24.625,-0.175
24.633,-0.175
24.641,-0.185
24.648,-0.185
24.656,-0.145
24.664,-0.135
24.672,-0.175
24.68,-0.155
24.688,-0.145
24.695,-0.175
24.703,-0.135
24.711,-0.125
24.719,-0.165
24.727,-0.165
24.734,-0.125
24.742,-0.135
24.75,-0.135
24.758,-0.165
24.766,-0.145
24.773,-0.145
24.781,-0.145
24.789,-0.145
24.797,-0.125
24.805,-0.095
24.812,-0.075
24.82,-0.045
24.828,-0.015
24.836,0.055
24.844,-0.025
24.852,-0.095
24.859,-0.115
24.867,-0.115
24.875,-0.145
24.883,-0.125
24.891,-0.155
24.898,-0.215
24.906,-0.245
24.914,-0.175
24.922,-0.145
24.93,-0.145
24.938,-0.205
24.945,-0.765
24.953,-0.555
24.961,0.705
24.969,2.265
24.977,2.845
24.984,2.625
24.992,1.335
25,-0.145
25.008,-0.335
25.016,-0.235
25.023,-0.275
25.031,-0.335
25.039,-0.345
25.047,-0.335
25.055,-0.315
25.062,-0.315
25.07,-0.305
25.078,-0.265
25.086,-0.265
25.094,-0.255
25.102,-0.225
25.109,-0.195
25.117,-0.185
25.125,-0.155
25.133,-0.125
25.141,-0.095
25.148,-0.085
25.156,-0.055
25.164,-0.105
25.172,-0.105
25.18,-0.115
25.188,-0.105
25.195,-0.145
25.203,-0.145
25.211,-0.145
25.219,-0.115
25.227,-0.125
25.234,-0.095
25.242,-0.105
25.25,-0.145
25.258,-0.115
25.266,-0.105
25.273,-0.135
25.281,-0.145
25.289,-0.145
25.297,-0.165
25.305,-0.105
25.312,-0.145
25.32,-0.115
25.328,-0.105
25.336,-0.125
25.344,-0.155
25.352,-0.105
25.359,-0.085
25.367,-0.115
25.375,-0.135
25.383,-0.115
25.391,-0.095
25.398,-0.095
25.406,-0.125
25.414,-0.155
25.422,-0.105
25.43,-0.115
25.438,-0.095
25.445,-0.045
25.453,-0.005
25.461,-0.095
25.469,0.015
25.477,0.045
25.484,-0.005
25.492,-0.065
25.5,-0.115
25.508,-0.065
25.516,-0.085
25.523,-0.155
25.531,-0.175
25.539,-0.195
25.547,-0.175
25.555,-0.185
25.562,-0.185
25.57,-0.135
25.578,-0.235
25.586,-0.715
25.594,-0.565
25.602,0.735
25.609,2.375
25.617,2.835
25.625,2.505
25.633,1.145
25.641,-0.165
25.648,-0.265
25.656,-0.225
25.664,-0.285
25.672,-0.335
25.68,-0.335
25.688,-0.365
25.695,-0.315
25.703,-0.305
25.711,-0.315
25.719,-0.265
25.727,-0.255
25.734,-0.225
25.742,-0.225
25.75,-0.175
25.758,-0.175
25.766,-0.145
25.773,-0.135
25.781,-0.105
25.789,-0.115
25.797,-0.105
25.805,-0.085
25.812,-0.085
25.82,-0.115
25.828,-0.105
25.836,-0.165
25.844,-0.175
25.852,-0.185
25.859,-0.155
25.867,-0.115
25.875,-0.125
25.883,-0.125
25.891,-0.135
25.898,-0.135
25.906,-0.165
25.914,-0.185
25.922,-0.155
25.93,-0.165
25.938,-0.175
25.945,-0.155
25.953,-0.155
25.961,-0.155
25.969,-0.165
25.977,-0.185
25.984,-0.155
25.992,-0.145
26,-0.155
26.008,-0.145
26.016,-0.145
26.023,-0.175
26.031,-0.185
26.039,-0.165
26.047,-0.145
26.055,-0.175
26.062,-0.175
26.07,-0.165
26.078,-0.155
26.086,-0.105
26.094,-0.085
26.102,-0.125
26.109,-0.035
26.117,-0.005
26.125,-0.055
26.133,-0.085
26.141,-0.125
26.148,-0.165
26.156,-0.145
26.164,-0.165
26.172,-0.215
26.18,-0.205
26.188,-0.225
26.195,-0.195
26.203,-0.195
26.211,-0.215
26.219,-0.195
26.227,-0.705
26.234,-0.715
26.242,0.165
26.25,1.875
26.258,2.715
26.266,2.545
26.273,1.585
26.281,0.055
26.289,-0.355
26.297,-0.305
26.305,-0.315
26.312,-0.345
26.32,-0.405
26.328,-0.385
26.336,-0.345
26.344,-0.345
26.352,-0.325
26.359,-0.275
26.367,-0.275
26.375,-0.265
26.383,-0.265
26.391,-0.205
26.398,-0.205
26.406,-0.185
26.414,-0.185
26.422,-0.145
26.43,-0.145
26.438,-0.135
26.445,-0.135
26.453,-0.135
26.461,-0.115
26.469,-0.145
26.477,-0.165
26.484,-0.145
26.492,-0.175
26.5,-0.135
26.508,-0.135
26.516,-0.135
26.523,-0.095
26.531,-0.085
26.539,-0.115
26.547,-0.135
26.555,-0.175
26.562,-0.185
26.57,-0.175
26.578,-0.185
26.586,-0.175
26.594,-0.155
26.602,-0.175
26.609,-0.165
26.617,-0.205
26.625,-0.175
26.633,-0.135
26.641,-0.135
26.648,-0.165
26.656,-0.195
26.664,-0.185
26.672,-0.165
26.68,-0.195
26.688,-0.145
26.695,-0.145
26.703,-0.165
26.711,-0.135
26.719,-0.125
26.727,-0.095
26.734,-0.095
26.742,-0.055
26.75,0.015
26.758,-0.025
26.766,-0.105
26.773,-0.135
26.781,-0.125
26.789,-0.155
26.797,-0.185
26.805,-0.205
26.812,-0.245
26.82,-0.205
26.828,-0.205
26.836,-0.215
26.844,-0.195
26.852,-0.175
26.859,-0.645
26.867,-0.775
26.875,0.195
26.883,1.945
26.891,2.705
26.898,2.505
26.906,1.505
26.914,-0.005
26.922,-0.375
26.93,-0.295
26.938,-0.315
26.945,-0.325
26.953,-0.335
26.961,-0.375
26.969,-0.375
26.977,-0.345
26.984,-0.325
26.992,-0.295
27,-0.305
27.008,-0.365
27.016,-0.255
27.023,-0.235
27.031,-0.225
27.039,-0.215
27.047,-0.175
27.055,-0.165
27.062,-0.195
27.07,-0.185
27.078,-0.175
27.086,-0.185
27.094,-0.205
27.102,-0.195
27.109,-0.215
27.117,-0.215
27.125,-0.215
27.133,-0.165
27.141,-0.155
27.148,-0.145
27.156,-0.165
27.164,-0.145
27.172,-0.175
27.18,-0.205
27.188,-0.215
27.195,-0.165
27.203,-0.225
27.211,-0.205
27.219,-0.195
27.227,-0.175
27.234,-0.185
27.242,-0.215
27.25,-0.185
27.258,-0.175
27.266,-0.195
27.273,-0.205
27.281,-0.185
27.289,-0.175
27.297,-0.205
27.305,-0.205
27.312,-0.185
27.32,-0.155
27.328,-0.185
27.336,-0.215
27.344,-0.155
27.352,-0.115
27.359,-0.125
27.367,-0.145
27.375,-0.005
27.383,-0.025
27.391,-0.115
27.398,-0.135
27.406,-0.115
27.414,-0.135
27.422,-0.165
27.43,-0.205
27.438,-0.245
27.445,-0.235
27.453,-0.245
27.461,-0.235
27.469,-0.235
27.477,-0.215
27.484,-0.265
27.492,-0.765
27.5,-0.755
27.508,0.225
27.516,2.015
27.523,2.825
27.531,2.685
27.539,1.685
27.547,0.045
27.555,-0.325
27.562,-0.275
27.57,-0.275
27.578,-0.325
27.586,-0.355
27.594,-0.355
27.602,-0.375
27.609,-0.325
27.617,-0.315
27.625,-0.315
27.633,-0.275
27.641,-0.255
27.648,-0.255
27.656,-0.215
27.664,-0.185
27.672,-0.195
27.68,-0.145
27.688,-0.145
27.695,-0.135
27.703,-0.095
27.711,-0.155
27.719,-0.155
27.727,-0.145
27.734,-0.195
27.742,-0.185
27.75,-0.185
27.758,-0.185
27.766,-0.155
27.773,-0.125
27.781,-0.155
27.789,-0.125
27.797,-0.135
27.805,-0.145
27.812,-0.165
27.82,-0.165
27.828,-0.155
27.836,-0.175
27.844,-0.125
27.852,-0.155
27.859,-0.165
27.867,-0.155
27.875,-0.145
27.883,-0.145
27.891,-0.155
27.898,-0.175
27.906,-0.145
27.914,-0.135
27.922,-0.125
27.93,-0.135
27.938,-0.145
27.945,-0.125
27.953,-0.165
27.961,-0.145
27.969,-0.085
27.977,-0.115
27.984,-0.105
27.992,-0.065
28,0.065
28.008,-0.015
28.016,-0.095
28.023,-0.155
28.031,-0.115
28.039,-0.125
28.047,-0.185
28.055,-0.195
28.062,-0.235
28.07,-0.225
28.078,-0.225
28.086,-0.225
28.094,-0.205
28.102,-0.195
28.109,-0.685
28.117,-0.825
28.125,0.015
28.133,1.785
28.141,2.765
28.148,2.745
28.156,2.005
28.164,0.375
28.172,-0.285
28.18,-0.285
28.188,-0.325
28.195,-0.365
28.203,-0.355
28.211,-0.365
28.219,-0.345
28.227,-0.335
28.234,-0.305
28.242,-0.305
28.25,-0.325
28.258,-0.295
28.266,-0.245
28.273,-0.225
28.281,-0.205
28.289,-0.165
28.297,-0.145
28.305,-0.155
28.312,-0.135
28.32,-0.105
28.328,-0.115
28.336,-0.125
28.344,-0.145
28.352,-0.155
28.359,-0.165
28.367,-0.175
28.375,-0.195
28.383,-0.145
28.391,-0.165
28.398,-0.135
28.406,-0.145
28.414,-0.155
28.422,-0.145
28.43,-0.165
28.438,-0.165
28.445,-0.155
28.453,-0.155
28.461,-0.185
28.469,-0.185
28.477,-0.165
28.484,-0.145
28.492,-0.135
28.5,-0.145
28.508,-0.135
28.516,-0.125
28.523,-0.155
28.531,-0.195
28.539,-0.115
28.547,-0.135
28.555,-0.155
28.562,-0.135
28.57,-0.165
28.578,-0.155
28.586,-0.165
28.594,-0.095
28.602,-0.065
28.609,-0.085
28.617,-0.075
28.625,0.015
28.633,0.055
28.641,-0.075
28.648,-0.125
28.656,-0.115
28.664,-0.115
28.672,-0.145
28.68,-0.175
28.688,-0.215
28.695,-0.235
28.703,-0.225
28.711,-0.225
28.719,-0.195
28.727,-0.165
28.734,-0.235
28.742,-0.805
28.75,-0.715
28.758,0.545
28.766,2.325
28.773,2.875
28.781,2.535
28.789,1.335
28.797,-0.055
28.805,-0.325
28.812,-0.285
28.82,-0.295
28.828,-0.355
28.836,-0.365
28.844,-0.385
28.852,-0.345
28.859,-0.325
28.867,-0.315
28.875,-0.305
28.883,-0.325
28.891,-0.255
28.898,-0.245
28.906,-0.225
28.914,-0.185
28.922,-0.185
28.93,-0.175
28.938,-0.185
28.945,-0.135
28.953,-0.105
28.961,-0.165
28.969,-0.155
28.977,-0.155
28.984,-0.135
28.992,-0.185
29,-0.165
29.008,-0.185
29.016,-0.105
29.023,-0.115
29.031,-0.135
29.039,-0.115
29.047,-0.125
29.055,-0.135
29.062,-0.175
29.07,-0.165
29.078,-0.185
29.086,-0.195
29.094,-0.175
29.102,-0.165
29.109,-0.145
29.117,-0.155
29.125,-0.145
29.133,-0.165
29.141,-0.145
29.148,-0.145
29.156,-0.155
29.164,-0.145
29.172,-0.145
29.18,-0.165
29.188,-0.135
29.195,-0.155
29.203,-0.185
29.211,-0.165
29.219,-0.155
29.227,-0.145
29.234,-0.095
29.242,-0.125
29.25,-0.055
29.258,0.045
29.266,-0.035
29.273,-0.105
29.281,-0.165
29.289,-0.165
29.297,-0.165
29.305,-0.135
29.312,-0.205
29.32,-0.215
29.328,-0.235
29.336,-0.215
29.344,-0.235
29.352,-0.225
29.359,-0.295
29.367,-0.855
29.375,-0.575
29.383,0.685
29.391,2.325
29.398,2.765
29.406,2.575
29.414,1.175
29.422,-0.275
29.43,-0.385
29.438,-0.325
29.445,-0.355
29.453,-0.365
29.461,-0.375
29.469,-0.355
29.477,-0.335
29.484,-0.315
29.492,-0.375
29.5,-0.285
29.508,-0.265
29.516,-0.245
29.523,-0.235
29.531,-0.265
29.539,-0.245
29.547,-0.225
29.555,-0.215
29.562,-0.185
29.57,-0.185
29.578,-0.155
29.586,-0.175
29.594,-0.175
29.602,-0.185
29.609,-0.225
29.617,-0.235
29.625,-0.185
29.633,-0.215
29.641,-0.235
29.648,-0.135
29.656,-0.095
29.664,-0.185
29.672,-0.135
29.68,-0.115
29.688,-0.165
29.695,-0.155
29.703,-0.185
29.711,-0.165
29.719,-0.155
29.727,-0.185
29.734,-0.155
29.742,-0.175
29.75,-0.155
29.758,-0.185
29.766,-0.155
29.773,-0.155
29.781,-0.145
29.789,-0.175
29.797,-0.185
29.805,-0.175
29.812,-0.165
29.82,-0.145
29.828,-0.155
29.836,-0.125
29.844,-0.125
29.852,-0.115
29.859,-0.115
29.867,-0.025
29.875,0.005
29.883,-0.045
29.891,-0.085
29.898,-0.105
29.906,-0.135
29.914,-0.175
29.922,-0.135
29.93,-0.195
29.938,-0.225
29.945,-0.205
29.953,-0.255
29.961,-0.155
29.969,-0.175
29.977,-0.285
29.984,-0.835
29.992,-0.565
30,0.865
30.008,2.475
30.016,2.885
30.023,2.485
30.031,0.995
30.039,-0.215
30.047,-0.265
30.055,-0.245
30.062,-0.295
30.07,-0.365
30.078,-0.365
30.086,-0.335
30.094,-0.325
30.102,-0.295
30.109,-0.295
30.117,-0.295
30.125,-0.285
30.133,-0.265
30.141,-0.225
30.148,-0.185
30.156,-0.195
30.164,-0.175
30.172,-0.125
30.18,-0.115
30.188,-0.105
30.195,-0.095
30.203,-0.105
30.211,-0.105
30.219,-0.135
30.227,-0.155
30.234,-0.165
30.242,-0.155
30.25,-0.155
30.258,-0.135
30.266,-0.115
30.273,-0.145
30.281,-0.155
30.289,-0.105
30.297,-0.125
30.305,-0.175
30.312,-0.175
30.32,-0.165
30.328,-0.165
30.336,-0.145
30.344,-0.155
30.352,-0.145
30.359,-0.145
30.367,-0.185
30.375,-0.155
30.383,-0.165
30.391,-0.145
30.398,-0.125
30.406,-0.165
30.414,-0.155
30.422,-0.145
30.43,-0.175
30.438,-0.135
30.445,-0.175
30.453,-0.155
30.461,-0.125
30.469,-0.105
30.477,-0.095
30.484,-0.035
30.492,0.065
30.5,-0.035
30.508,-0.065
30.516,-0.105
30.523,-0.125
30.531,-0.135
30.539,-0.135
30.547,-0.195
30.555,-0.195
30.562,-0.215
30.57,-0.205
30.578,-0.195
30.586,-0.185
30.594,-0.185
30.602,-0.725
30.609,-0.815
30.617,0.075
30.625,1.815
30.633,2.745
30.641,2.685
30.648,1.935
30.656,0.305
30.664,-0.295
30.672,-0.275
30.68,-0.285
30.688,-0.355
30.695,-0.355
30.703,-0.375
30.711,-0.335
30.719,-0.315
30.727,-0.295
30.734,-0.315
30.742,-0.285
30.75,-0.245
30.758,-0.245
30.766,-0.265
30.773,-0.205
30.781,-0.205
30.789,-0.145
30.797,-0.125
30.805,-0.125
30.812,-0.135
30.82,-0.125
30.828,-0.125
30.836,-0.135
30.844,-0.155
30.852,-0.175
30.859,-0.175
30.867,-0.195
30.875,-0.145
30.883,-0.105
30.891,-0.105
30.898,-0.085
30.906,-0.075
30.914,-0.095
30.922,-0.115
30.93,-0.135
30.938,-0.145
30.945,-0.145
30.953,-0.165
30.961,-0.135
30.969,-0.135
30.977,-0.135
30.984,-0.125
30.992,-0.135
31,-0.155
31.008,-0.145
31.016,-0.175
31.023,-0.145
31.031,-0.135
31.039,-0.135
31.047,-0.145
31.055,-0.145
31.062,-0.175
31.07,-0.155
31.078,-0.135
31.086,-0.125
31.094,-0.115
31.102,-0.105
31.109,-0.025
31.117,0.035
31.125,-0.045
31.133,-0.065
31.141,-0.145
31.148,-0.135
31.156,-0.155
31.164,-0.155
31.172,-0.185
31.18,-0.255
31.188,-0.235
31.195,-0.225
31.203,-0.175
31.211,-0.205
31.219,-0.265
31.227,-0.855
31.234,-0.645
31.242,0.605
31.25,2.235
31.258,2.705
31.266,2.525
31.273,1.205
31.281,-0.255
31.289,-0.405
31.297,-0.285
31.305,-0.325
31.312,-0.385
31.32,-0.395
31.328,-0.405
31.336,-0.345
31.344,-0.325
31.352,-0.355
31.359,-0.345
31.367,-0.275
31.375,-0.285
31.383,-0.245
31.391,-0.255
31.398,-0.225
31.406,-0.265
31.414,-0.225
31.422,-0.195
31.43,-0.165
31.438,-0.165
31.445,-0.175
31.453,-0.245
31.461,-0.225
31.469,-0.215
31.477,-0.205
31.484,-0.175
31.492,-0.245
31.5,-0.205
31.508,-0.135
31.516,-0.105
31.523,-0.135
31.531,-0.185
31.539,-0.165
31.547,-0.175
31.555,-0.175
31.562,-0.215
31.57,-0.205
31.578,-0.175
31.586,-0.215
31.594,-0.235
31.602,-0.185
31.609,-0.175
31.617,-0.175
31.625,-0.205
31.633,-0.175
31.641,-0.195
31.648,-0.205
31.656,-0.225
31.664,-0.215
31.672,-0.185
31.68,-0.245
31.688,-0.205
31.695,-0.195
31.703,-0.245
31.711,-0.145
31.719,-0.125
31.727,-0.165
31.734,-0.015
31.742,-0.025
31.75,-0.105
31.758,-0.135
31.766,-0.185
31.773,-0.195
31.781,-0.195
31.789,-0.195
31.797,-0.265
31.805,-0.265
31.812,-0.295
31.82,-0.285
31.828,-0.315
31.836,-0.205
31.844,-0.465
31.852,-0.945
31.859,-0.535
31.867,0.945
31.875,2.475
31.883,2.805
31.891,2.435
31.898,0.635
31.906,-0.385
31.914,-0.335
31.922,-0.315
31.93,-0.355
31.938,-0.415
31.945,-0.435
31.953,-0.385
31.961,-0.415
31.969,-0.405
31.977,-0.415
31.984,-0.345
31.992,-0.355
32,-0.335
32.008,-0.285
32.016,-0.245
32.023,-0.215
32.031,-0.185
32.039,-0.205
32.047,-0.185
32.055,-0.205
32.062,-0.165
32.07,-0.185
32.078,-0.185
32.086,-0.215
32.094,-0.225
32.102,-0.275
32.109,-0.255
32.117,-0.225
32.125,-0.235
32.133,-0.185
32.141,-0.155
32.148,-0.155
32.156,-0.155
32.164,-0.185
32.172,-0.215
32.18,-0.215
32.188,-0.205
32.195,-0.195
32.203,-0.195
32.211,-0.185
32.219,-0.185
32.227,-0.165
32.234,-0.205
32.242,-0.195
32.25,-0.175
32.258,-0.175
32.266,-0.175
32.273,-0.185
32.281,-0.175
32.289,-0.155
32.297,-0.175
32.305,-0.185
32.312,-0.165
32.32,-0.105
32.328,-0.095
32.336,-0.115
32.344,-0.105
32.352,-0.045
32.359,-0.025
32.367,-0.035
32.375,-0.105
32.383,-0.145
32.391,-0.125
32.398,-0.145
32.406,-0.205
32.414,-0.215
32.422,-0.225
32.43,-0.225
32.438,-0.225
32.445,-0.255
32.453,-0.235
32.461,-0.185
32.469,-0.465
32.477,-0.865
32.484,-0.505
32.492,1.125
32.5,2.595
32.508,2.885
32.516,2.405
32.523,0.795
32.531,-0.215
32.539,-0.315
32.547,-0.315
32.555,-0.325
32.562,-0.365
32.57,-0.365
32.578,-0.375
32.586,-0.365
32.594,-0.295
32.602,-0.335
32.609,-0.295
32.617,-0.275
32.625,-0.285
32.633,-0.275
32.641,-0.215
32.648,-0.205
32.656,-0.155
32.664,-0.155
32.672,-0.135
32.68,-0.125
32.688,-0.105
32.695,-0.135
32.703,-0.145
32.711,-0.175
32.719,-0.185
32.727,-0.195
32.734,-0.185
32.742,-0.155
32.75,-0.145
32.758,-0.145
32.766,-0.145
32.773,-0.145
32.781,-0.145
32.789,-0.155
32.797,-0.155
32.805,-0.195
32.812,-0.165
32.82,-0.165
32.828,-0.135
32.836,-0.165
32.844,-0.155
32.852,-0.175
32.859,-0.145
32.867,-0.105
32.875,-0.125
32.883,-0.155
32.891,-0.155
32.898,-0.125
32.906,-0.155
32.914,-0.145
32.922,-0.135
32.93,-0.135
32.938,-0.125
32.945,-0.175
32.953,-0.155
32.961,-0.105
32.969,-0.065
32.977,-0.105
32.984,-0.085
32.992,0.055
33,0.015
33.008,-0.045
33.016,-0.095
33.023,-0.115
33.031,-0.125
33.039,-0.135
33.047,-0.195
33.055,-0.225
33.062,-0.225
33.07,-0.235
33.078,-0.195
33.086,-0.205
33.094,-0.165
33.102,-0.435
33.109,-0.795
33.117,-0.455
33.125,1.005
33.133,2.455
33.141,2.705
33.148,2.315
33.156,1.045
33.164,-0.135
33.172,-0.305
33.18,-0.275
33.188,-0.345
33.195,-0.345
33.203,-0.345
33.211,-0.385
33.219,-0.365
33.227,-0.315
33.234,-0.315
33.242,-0.305
33.25,-0.315
33.258,-0.295
33.266,-0.245
33.273,-0.225
33.281,-0.215
33.289,-0.205
33.297,-0.195
33.305,-0.185
33.312,-0.175
33.32,-0.145
33.328,-0.135
33.336,-0.125
33.344,-0.155
33.352,-0.165
33.359,-0.235
33.367,-0.195
33.375,-0.215
33.383,-0.195
33.391,-0.135
33.398,-0.125
33.406,-0.135
33.414,-0.155
33.422,-0.175
33.43,-0.185
33.438,-0.185
33.445,-0.185
33.453,-0.165
33.461,-0.195
33.469,-0.145
33.477,-0.165
33.484,-0.155
33.492,-0.175
33.5,-0.145
33.508,-0.145
33.516,-0.135
33.523,-0.135
33.531,-0.165
33.539,-0.175
33.547,-0.155
33.555,-0.125
33.562,-0.135
33.57,-0.165
33.578,-0.155
33.586,-0.155
33.594,-0.145
33.602,-0.145
33.609,-0.115
33.617,-0.065
33.625,-0.085
33.633,-0.025
33.641,0.035
33.648,-0.045
33.656,-0.045
33.664,-0.085
33.672,-0.095
33.68,-0.125
33.688,-0.165
33.695,-0.165
33.703,-0.195
33.711,-0.235
33.719,-0.205
33.727,-0.165
33.734,-0.165
33.742,-0.165
33.75,-0.645
33.758,-0.755
33.766,-0.065
33.773,1.695
33.781,2.645
33.789,2.525
33.797,1.795
33.805,0.125
33.812,-0.365
33.82,-0.315
33.828,-0.315
33.836,-0.315
33.844,-0.365
33.852,-0.325
33.859,-0.315
33.867,-0.325
33.875,-0.315
33.883,-0.295
33.891,-0.265
33.898,-0.235
33.906,-0.265
33.914,-0.235
33.922,-0.195
33.93,-0.175
33.938,-0.175
33.945,-0.165
33.953,-0.145
33.961,-0.185
33.969,-0.145
33.977,-0.145
33.984,-0.155
33.992,-0.175
34,-0.195
34.008,-0.145
34.016,-0.135
34.023,-0.125
34.031,-0.125
34.039,-0.085
34.047,-0.065
34.055,-0.095
34.062,-0.115
34.07,-0.135
34.078,-0.145
34.086,-0.145
34.094,-0.165
34.102,-0.145
34.109,-0.165
34.117,-0.155
34.125,-0.145
34.133,-0.175
34.141,-0.135
34.148,-0.135
34.156,-0.135
34.164,-0.145
34.172,-0.145
34.18,-0.165
34.188,-0.175
34.195,-0.175
34.203,-0.165
34.211,-0.155
34.219,-0.175
34.227,-0.165
34.234,-0.135
34.242,-0.135
34.25,-0.145
34.258,-0.125
34.266,-0.105
34.273,-0.125
34.281,-0.105
34.289,-0.025
34.297,0.035
34.305,-0.035
34.312,-0.105
34.32,-0.135
34.328,-0.115
34.336,-0.155
34.344,-0.195
34.352,-0.195
34.359,-0.215
34.367,-0.215
34.375,-0.245
34.383,-0.195
34.391,-0.105
34.398,-0.485
34.406,-0.855
34.414,-0.145
34.422,1.525
34.43,2.715
34.438,2.735
34.445,2.205
34.453,0.375
34.461,-0.425
34.469,-0.295
34.477,-0.305
34.484,-0.375
34.492,-0.345
34.5,-0.375
34.508,-0.375
34.516,-0.335
34.523,-0.345
34.531,-0.315
34.539,-0.275
34.547,-0.295
34.555,-0.285
34.562,-0.235
34.57,-0.215
34.578,-0.185
34.586,-0.185
34.594,-0.175
34.602,-0.145
34.609,-0.135
34.617,-0.195
34.625,-0.185
34.633,-0.175
34.641,-0.205
34.648,-0.215
34.656,-0.165
34.664,-0.175
34.672,-0.165
34.68,-0.125
34.688,-0.175
34.695,-0.115
34.703,-0.115
34.711,-0.145
34.719,-0.145
34.727,-0.165
34.734,-0.185
34.742,-0.175
34.75,-0.185
34.758,-0.175
34.766,-0.145
34.773,-0.165
34.781,-0.185
34.789,-0.175
34.797,-0.155
34.805,-0.155
34.812,-0.165
34.82,-0.165
34.828,-0.175
34.836,-0.155
34.844,-0.165
34.852,-0.155
34.859,-0.155
34.867,-0.185
34.875,-0.195
34.883,-0.175
34.891,-0.105
34.898,-0.085
34.906,-0.125
34.914,-0.145
34.922,0.035
34.93,0.005
34.938,-0.065
34.945,-0.085
34.953,-0.105
34.961,-0.115
34.969,-0.205
34.977,-0.185
34.984,-0.205
34.992,-0.195
35,-0.255
35.008,-0.225
35.016,-0.205
35.023,-0.165
35.031,-0.445
35.039,-0.875
35.047,-0.315
35.055,1.265
35.062,2.605
35.07,2.835
35.078,2.315
35.086,0.635
35.094,-0.325
35.102,-0.275
35.109,-0.255
35.117,-0.325
35.125,-0.385
35.133,-0.385
35.141,-0.335
35.148,-0.355
35.156,-0.305
35.164,-0.285
35.172,-0.305
35.18,-0.275
35.188,-0.255
35.195,-0.245
35.203,-0.165
35.211,-0.175
35.219,-0.175
35.227,-0.145
35.234,-0.115
35.242,-0.115
35.25,-0.125
35.258,-0.105
35.266,-0.125
35.273,-0.155
35.281,-0.185
35.289,-0.185
35.297,-0.175
35.305,-0.185
35.312,-0.125
35.32,-0.135
35.328,-0.125
35.336,-0.135
35.344,-0.145
35.352,-0.195
35.359,-0.145
35.367,-0.145
35.375,-0.165
35.383,-0.165
35.391,-0.155
35.398,-0.155
35.406,-0.175
35.414,-0.125
35.422,-0.115
35.43,-0.115
35.438,-0.145
35.445,-0.145
35.453,-0.125
35.461,-0.125
35.469,-0.135
35.477,-0.145
35.484,-0.115
35.492,-0.175
35.5,-0.135
35.508,-0.155
35.516,-0.135
35.523,-0.155
35.531,-0.095
35.539,-0.055
35.547,-0.065
35.555,-0.065
35.562,0.065
35.57,0.015
35.578,-0.035
35.586,-0.105
35.594,-0.085
35.602,-0.105
35.609,-0.115
35.617,-0.165
35.625,-0.185
35.633,-0.195
35.641,-0.195
35.648,-0.175
35.656,-0.185
35.664,-0.145
35.672,-0.325
35.68,-0.775
35.688,-0.295
35.695,1.355
35.703,2.695
35.711,2.835
35.719,2.275
35.727,0.745
35.734,-0.225
35.742,-0.275
35.75,-0.245
35.758,-0.315
35.766,-0.305
35.773,-0.355
35.781,-0.325
35.789,-0.315
35.797,-0.295
35.805,-0.275
35.812,-0.295
35.82,-0.265
35.828,-0.215
35.836,-0.185
35.844,-0.195
35.852,-0.155
35.859,-0.155
35.867,-0.155
35.875,-0.115
35.883,-0.095
35.891,-0.085
35.898,-0.095
35.906,-0.095
35.914,-0.115
35.922,-0.135
35.93,-0.115
35.938,-0.135
35.945,-0.145
35.953,-0.135
35.961,-0.125
35.969,-0.085
35.977,-0.095
35.984,-0.115
35.992,-0.125
36,-0.145
36.008,-0.135
36.016,-0.165
36.023,-0.145
36.031,-0.135
36.039,-0.125
36.047,-0.125
36.055,-0.135
36.062,-0.125
36.07,-0.135
36.078,-0.115
36.086,-0.125
36.094,-0.125
36.102,-0.135
36.109,-0.105
36.117,-0.095
36.125,-0.125
36.133,-0.125
36.141,-0.145
36.148,-0.145
36.156,-0.125
36.164,-0.125
36.172,-0.095
36.18,-0.035
36.188,-0.055
36.195,-0.085
36.203,0.035
36.211,0.035
36.219,0.005
36.227,-0.065
36.234,-0.115
36.242,-0.085
36.25,-0.145
36.258,-0.145
36.266,-0.165
36.273,-0.195
36.281,-0.165
36.289,-0.175
36.297,-0.175
36.305,-0.125
36.312,-0.335
36.32,-0.795
36.328,-0.485
36.336,1.045
36.344,2.575
36.352,2.775
36.359,2.355
36.367,0.755
36.375,-0.285
36.383,-0.275
36.391,-0.245
36.398,-0.305
36.406,-0.315
36.414,-0.355
36.422,-0.335
36.43,-0.325
36.438,-0.285
36.445,-0.285
36.453,-0.265
36.461,-0.245
36.469,-0.235
36.477,-0.185
36.484,-0.195
36.492,-0.175
36.5,-0.135
36.508,-0.125
36.516,-0.145
36.523,-0.105
36.531,-0.105
36.539,-0.095
36.547,-0.085
36.555,-0.195
36.562,-0.145
36.57,-0.135
36.578,-0.125
36.586,-0.105
36.594,-0.115
36.602,-0.075
36.609,-0.085
36.617,-0.075
36.625,-0.115
36.633,-0.125
36.641,-0.125
36.648,-0.135
36.656,-0.145
36.664,-0.165
36.672,-0.145
36.68,-0.135
36.688,-0.165
36.695,-0.165
36.703,-0.135
36.711,-0.145
36.719,-0.145
36.727,-0.165
36.734,-0.135
36.742,-0.155
36.75,-0.145
36.758,-0.175
36.766,-0.125
36.773,-0.155
36.781,-0.145
36.789,-0.145
36.797,-0.155
36.805,-0.125
36.812,-0.095
36.82,-0.095
36.828,-0.075
36.836,0.015
36.844,0.005
36.852,-0.045
36.859,-0.165
36.867,-0.115
36.875,-0.115
36.883,-0.125
36.891,-0.145
36.898,-0.235
36.906,-0.265
36.914,-0.205
36.922,-0.185
36.93,-0.185
36.938,-0.175
36.945,-0.215
36.953,-0.835
36.961,-0.735
36.969,0.455
36.977,2.125
36.984,2.785
36.992,2.525
37,1.655
37.008,-0.015
37.016,-0.375
37.023,-0.285
37.031,-0.325
37.039,-0.375
37.047,-0.335
37.055,-0.315
37.062,-0.385
37.07,-0.335
37.078,-0.295
37.086,-0.365
37.094,-0.275
37.102,-0.235
37.109,-0.245
37.117,-0.225
37.125,-0.205
37.133,-0.185
37.141,-0.175
37.148,-0.165
37.156,-0.175
37.164,-0.155
37.172,-0.155
37.18,-0.125
37.188,-0.205
37.195,-0.195
37.203,-0.165
37.211,-0.215
37.219,-0.195
37.227,-0.135
37.234,-0.105
37.242,-0.095
37.25,-0.115
37.258,-0.165
37.266,-0.145
37.273,-0.175
37.281,-0.175
37.289,-0.145
37.297,-0.125
37.305,-0.145
37.312,-0.175
37.32,-0.185
37.328,-0.145
37.336,-0.155
37.344,-0.155
37.352,-0.145
37.359,-0.175
37.367,-0.165
37.375,-0.165
37.383,-0.135
37.391,-0.115
37.398,-0.155
37.406,-0.185
37.414,-0.155
37.422,-0.155
37.43,-0.165
37.438,-0.145
37.445,-0.075
37.453,-0.105
37.461,-0.105
37.469,0.035
37.477,0.005
37.484,-0.035
37.492,-0.075
37.5,-0.125
37.508,-0.155
37.516,-0.155
37.523,-0.165
37.531,-0.215
37.539,-0.225
37.547,-0.225
37.555,-0.185
37.562,-0.175
37.57,-0.165
37.578,-0.375
37.586,-0.845
37.594,-0.365
37.602,1.295
37.609,2.605
37.617,2.825
37.625,2.485
37.633,0.915
37.641,-0.265
37.648,-0.315
37.656,-0.275
37.664,-0.325
37.672,-0.345
37.68,-0.385
37.688,-0.345
37.695,-0.335
37.703,-0.305
37.711,-0.295
37.719,-0.285
37.727,-0.275
37.734,-0.255
37.742,-0.225
37.75,-0.205
37.758,-0.185
37.766,-0.165
37.773,-0.135
37.781,-0.145
37.789,-0.115
37.797,-0.115
37.805,-0.155
37.812,-0.125
37.82,-0.145
37.828,-0.205
37.836,-0.185
37.844,-0.165
37.852,-0.165
37.859,-0.125
37.867,-0.125
37.875,-0.095
37.883,-0.095
37.891,-0.105
37.898,-0.115
37.906,-0.145
37.914,-0.125
37.922,-0.125
37.93,-0.125
37.938,-0.115
37.945,-0.125
37.953,-0.125
37.961,-0.115
37.969,-0.115
37.977,-0.125
37.984,-0.105
37.992,-0.095
38,-0.105
38.008,-0.105
38.016,-0.095
38.023,-0.105
38.031,-0.115
38.039,-0.105
38.047,-0.105
38.055,-0.145
38.062,-0.125
38.07,-0.105
38.078,-0.075
38.086,-0.055
38.094,-0.055
38.102,-0.045
38.109,0.045
38.117,0.035
38.125,-0.025
38.133,-0.055
38.141,-0.075
38.148,-0.075
38.156,-0.085
38.164,-0.125
38.172,-0.175
38.18,-0.185
38.188,-0.175
38.195,-0.185
38.203,-0.165
38.211,-0.135
38.219,-0.455
38.227,-0.725
38.234,-0.235
38.242,1.375
38.25,2.675
38.258,2.815
38.266,2.175
38.273,0.555
38.281,-0.275
38.289,-0.265
38.297,-0.265
38.305,-0.285
38.312,-0.315
38.32,-0.335
38.328,-0.325
38.336,-0.325
38.344,-0.315
38.352,-0.265
38.359,-0.255
38.367,-0.235
38.375,-0.215
38.383,-0.215
38.391,-0.185
38.398,-0.155
38.406,-0.125
38.414,-0.125
38.422,-0.115
38.43,-0.095
38.438,-0.105
38.445,-0.085
38.453,-0.135
38.461,-0.125
38.469,-0.135
38.477,-0.165
38.484,-0.155
38.492,-0.155
38.5,-0.105
38.508,-0.115
38.516,-0.095
38.523,-0.085
38.531,-0.135
38.539,-0.145
38.547,-0.125
38.555,-0.135
38.562,-0.155
38.57,-0.135
38.578,-0.115
38.586,-0.105
38.594,-0.125
38.602,-0.115
38.609,-0.115
38.617,-0.125
38.625,-0.115
38.633,-0.105
38.641,-0.105
38.648,-0.095
38.656,-0.115
38.664,-0.105
38.672,-0.115
38.68,-0.125
38.688,-0.125
38.695,-0.125
38.703,-0.115
38.711,-0.125
38.719,-0.135
38.727,-0.105
38.734,-0.045
38.742,-0.045
38.75,-0.045
38.758,0.035
38.766,0.065
38.773,-0.005
38.781,-0.045
38.789,-0.075
38.797,-0.045
38.805,-0.085
38.812,-0.135
38.82,-0.165
38.828,-0.175
38.836,-0.155
38.844,-0.175
38.852,-0.145
38.859,-0.115
38.867,-0.145
38.875,-0.625
38.883,-0.645
38.891,0.465
38.898,2.045
38.906,2.655
38.914,2.455
38.922,1.465
38.93,0.105
38.938,-0.255
38.945,-0.235
38.953,-0.245
38.961,-0.305
38.969,-0.295
38.977,-0.335
38.984,-0.315
38.992,-0.235
39,-0.285
39.008,-0.255
39.016,-0.275
39.023,-0.215
39.031,-0.185
39.039,-0.185
39.047,-0.135
39.055,-0.155
39.062,-0.125
39.07,-0.165
39.078,-0.095
39.086,-0.065
39.094,-0.085
39.102,-0.065
39.109,-0.125
39.117,-0.175
39.125,-0.175
39.133,-0.145
39.141,-0.145
39.148,-0.125
39.156,-0.125
39.164,-0.125
39.172,-0.115
39.18,-0.105
39.188,-0.145
39.195,-0.145
39.203,-0.135
39.211,-0.165
39.219,-0.205
39.227,-0.115
39.234,-0.145
39.242,-0.175
39.25,-0.155
39.258,-0.135
39.266,-0.155
39.273,-0.165
39.281,-0.165
39.289,-0.145
39.297,-0.145
39.305,-0.155
39.312,-0.165
39.32,-0.165
39.328,-0.105
39.336,-0.155
39.344,-0.155
39.352,-0.165
39.359,-0.145
39.367,-0.185
39.375,-0.185
39.383,-0.135
39.391,-0.085
39.398,-0.075
39.406,-0.085
39.414,0.005
39.422,0.015
39.43,-0.075
39.438,-0.105
39.445,-0.085
39.453,-0.155
39.461,-0.125
39.469,-0.155
39.477,-0.245
39.484,-0.185
39.492,-0.195
39.5,-0.265
39.508,-0.175
39.516,-0.175
39.523,-0.345
39.531,-0.695
39.539,-0.495
39.547,0.825
39.555,2.325
39.562,2.695
39.57,2.305
39.578,0.855
39.586,-0.305
39.594,-0.335
39.602,-0.345
39.609,-0.305
39.617,-0.325
39.625,-0.345
39.633,-0.375
39.641,-0.355
39.648,-0.325
39.656,-0.335
39.664,-0.305
39.672,-0.255
39.68,-0.255
39.688,-0.245
39.695,-0.245
39.703,-0.225
39.711,-0.195
39.719,-0.185
39.727,-0.225
39.734,-0.175
39.742,-0.105
39.75,-0.155
39.758,-0.165
39.766,-0.165
39.773,-0.185
39.781,-0.195
39.789,-0.175
39.797,-0.145
39.805,-0.135
39.812,-0.195
39.82,-0.115
39.828,-0.085
39.836,-0.115
39.844,-0.165
39.852,-0.155
39.859,-0.175
39.867,-0.195
39.875,-0.155
39.883,-0.165
39.891,-0.195
39.898,-0.175
39.906,-0.215
39.914,-0.195
39.922,-0.185
39.93,-0.165
39.938,-0.145
39.945,-0.175
39.953,-0.145
39.961,-0.205
39.969,-0.225
39.977,-0.165
39.984,-0.195
39.992,-0.185
40,-0.175
40.008,-0.155
40.016,-0.155
40.023,-0.205
40.031,-0.125
40.039,-0.095
40.047,-0.135
40.055,-0.045
40.062,-0.005
40.07,-0.085
40.078,-0.135
40.086,-0.125
40.094,-0.145
40.102,-0.165
40.109,-0.205
40.117,-0.225
40.125,-0.235
40.133,-0.265
40.141,-0.215
40.148,-0.185
40.156,-0.205
40.164,-0.355
40.172,-0.875
40.18,-0.505
40.188,0.895
40.195,2.465
40.203,2.695
40.211,2.415
40.219,0.945
40.227,-0.285
40.234,-0.385
40.242,-0.405
40.25,-0.305
40.258,-0.295
40.266,-0.345
40.273,-0.335
40.281,-0.365
40.289,-0.405
40.297,-0.265
40.305,-0.295
40.312,-0.305
40.32,-0.255
40.328,-0.255
40.336,-0.255
40.344,-0.235
40.352,-0.215
40.359,-0.235
40.367,-0.185
40.375,-0.145
40.383,-0.155
40.391,-0.155
40.398,-0.185
40.406,-0.215
40.414,-0.205
40.422,-0.195
40.43,-0.205
40.438,-0.175
40.445,-0.135
40.453,-0.125
40.461,-0.135
40.469,-0.175
40.477,-0.155
40.484,-0.125
40.492,-0.155
40.5,-0.195
40.508,-0.175
40.516,-0.175
40.523,-0.165
40.531,-0.175
40.539,-0.175
40.547,-0.155
40.555,-0.175
40.562,-0.185
40.57,-0.205
40.578,-0.155
40.586,-0.125
40.594,-0.175
40.602,-0.205
40.609,-0.115
40.617,-0.165
40.625,-0.215
40.633,-0.125
40.641,-0.155
40.648,-0.195
40.656,-0.135
40.664,-0.095
40.672,-0.115
40.68,-0.075
40.688,-0.055
40.695,0.055
40.703,-0.045
40.711,-0.095
40.719,-0.135
40.727,-0.105
40.734,-0.115
40.742,-0.165
40.75,-0.205
40.758,-0.195
40.766,-0.235
40.773,-0.165
40.781,-0.165
40.789,-0.145
40.797,-0.205
40.805,-0.745
40.812,-0.555
40.82,0.755
40.828,2.285
40.836,2.865
40.844,2.675
40.852,1.515
40.859,0.025
40.867,-0.355
40.875,-0.255
40.883,-0.245
40.891,-0.305
40.898,-0.335
40.906,-0.345
40.914,-0.335
40.922,-0.305
40.93,-0.275
40.938,-0.265
40.945,-0.275
40.953,-0.235
40.961,-0.235
40.969,-0.205
40.977,-0.195
40.984,-0.165
40.992,-0.135
41,-0.155
41.008,-0.145
41.016,-0.105
41.023,-0.125
41.031,-0.125
41.039,-0.115
41.047,-0.135
41.055,-0.185
41.062,-0.195
41.07,-0.205
41.078,-0.145
41.086,-0.115
41.094,-0.135
41.102,-0.105
41.109,-0.115
41.117,-0.095
41.125,-0.115
41.133,-0.135
41.141,-0.145
41.148,-0.165
41.156,-0.185
41.164,-0.135
41.172,-0.125
41.18,-0.145
41.188,-0.145
41.195,-0.135
41.203,-0.105
41.211,-0.155
41.219,-0.145
41.227,-0.125
41.234,-0.115
41.242,-0.115
41.25,-0.135
41.258,-0.145
41.266,-0.135
41.273,-0.105
41.281,-0.125
41.289,-0.125
41.297,-0.135
41.305,-0.095
41.312,-0.045
41.32,-0.075
41.328,-0.035
41.336,0.045
41.344,0.025
41.352,-0.035
41.359,-0.085
41.367,-0.115
41.375,-0.115
41.383,-0.145
41.391,-0.135
41.398,-0.145
41.406,-0.165
41.414,-0.195
41.422,-0.195
41.43,-0.185
41.438,-0.125
41.445,-0.365
41.453,-0.765
41.461,-0.385
41.469,1.205
41.477,2.685
41.484,2.875
41.492,2.085
41.5,0.265
41.508,-0.305
41.516,-0.255
41.523,-0.245
41.531,-0.335
41.539,-0.345
41.547,-0.335
41.555,-0.325
41.562,-0.325
41.57,-0.305
41.578,-0.235
41.586,-0.295
41.594,-0.245
41.602,-0.235
41.609,-0.185
41.617,-0.175
41.625,-0.185
41.633,-0.115
41.641,-0.145
41.648,-0.085
41.656,-0.095
41.664,-0.075
41.672,-0.115
41.68,-0.115
41.688,-0.095
41.695,-0.165
41.703,-0.135
41.711,-0.155
41.719,-0.115
41.727,-0.105
41.734,-0.115
41.742,-0.105
41.75,-0.075
41.758,-0.125
41.766,-0.145
41.773,-0.125
41.781,-0.175
41.789,-0.125
41.797,-0.135
41.805,-0.135
41.812,-0.135
41.82,-0.135
41.828,-0.155
41.836,-0.115
41.844,-0.155
41.852,-0.135
41.859,-0.155
41.867,-0.135
41.875,-0.125
41.883,-0.125
41.891,-0.115
41.898,-0.105
41.906,-0.125
41.914,-0.165
41.922,-0.115
41.93,-0.005
41.938,-0.105
41.945,-0.125
41.953,-0.095
41.961,0.035
41.969,0.025
41.977,-0.045
41.984,-0.105
41.992,-0.105
42,-0.115
42.008,-0.135
42.016,-0.155
42.023,-0.225
42.031,-0.205
42.039,-0.175
42.047,-0.195
42.055,-0.205
42.062,-0.165
42.07,-0.215
42.078,-0.815
42.086,-0.715
42.094,0.375
42.102,2.055
42.109,2.805
42.117,2.555
42.125,1.615
42.133,0.135
42.141,-0.335
42.148,-0.295
42.156,-0.355
42.164,-0.325
42.172,-0.365
42.18,-0.345
42.188,-0.375
42.195,-0.335
42.203,-0.315
42.211,-0.315
42.219,-0.315
42.227,-0.315
42.234,-0.225
42.242,-0.245
42.25,-0.215
42.258,-0.185
42.266,-0.165
42.273,-0.165
42.281,-0.155
42.289,-0.155
42.297,-0.135
42.305,-0.145
42.312,-0.215
42.32,-0.185
42.328,-0.195
42.336,-0.165
42.344,-0.175
42.352,-0.155
42.359,-0.165
42.367,-0.155
42.375,-0.115
42.383,-0.165
42.391,-0.155
42.398,-0.165
42.406,-0.205
42.414,-0.165
42.422,-0.165
42.43,-0.195
42.438,-0.205
42.445,-0.165
42.453,-0.185
42.461,-0.165
42.469,-0.165
42.477,-0.135
42.484,-0.125
42.492,-0.175
42.5,-0.105
42.508,-0.155
42.516,-0.185
42.523,-0.185
42.531,-0.145
42.539,-0.175
42.547,-0.135
42.555,-0.105
42.562,-0.105
42.57,-0.105
42.578,-0.085
42.586,0.055
42.594,-0.005
42.602,-0.125
42.609,-0.045
42.617,-0.185
42.625,-0.105
42.633,-0.105
42.641,-0.175
42.648,-0.175
42.656,-0.225
42.664,-0.245
42.672,-0.205
42.68,-0.175
42.688,-0.185
42.695,-0.245
42.703,-0.855
42.711,-0.645
42.719,0.655
42.727,2.345
42.734,2.725
42.742,2.485
42.75,1.195
42.758,-0.165
42.766,-0.355
42.773,-0.265
42.781,-0.315
42.789,-0.345
42.797,-0.425
42.805,-0.305
42.812,-0.315
42.82,-0.305
42.828,-0.295
42.836,-0.315
42.844,-0.265
42.852,-0.275
42.859,-0.265
42.867,-0.235
42.875,-0.225
42.883,-0.185
42.891,-0.175
42.898,-0.165
42.906,-0.165
42.914,-0.185
42.922,-0.155
42.93,-0.175
42.938,-0.255
42.945,-0.195
42.953,-0.165
42.961,-0.145
42.969,-0.135
42.977,-0.165
42.984,-0.095
42.992,-0.125
43,-0.165
43.008,-0.115
43.016,-0.115
43.023,-0.155
43.031,-0.175
43.039,-0.175
43.047,-0.225
43.055,-0.145
43.062,-0.155
43.07,-0.175
43.078,-0.165
43.086,-0.185
43.094,-0.145
43.102,-0.145
43.109,-0.165
43.117,-0.165
43.125,-0.185
43.133,-0.155
43.141,-0.155
43.148,-0.155
43.156,-0.175
43.164,-0.145
43.172,-0.195
43.18,-0.185
43.188,-0.185
43.195,-0.145
43.203,-0.125
43.211,-0.145
43.219,-0.065
43.227,0.025
43.234,0.005
43.242,-0.065
43.25,-0.165
43.258,-0.155
43.266,-0.155
43.273,-0.155
43.281,-0.185
43.289,-0.205
43.297,-0.215
43.305,-0.235
43.312,-0.245
43.32,-0.205
43.328,-0.165
43.336,-0.395
43.344,-0.825
43.352,-0.275
43.359,1.135
43.367,2.565
43.375,2.785
43.383,2.465
43.391,0.755
43.398,-0.375
43.406,-0.335
43.414,-0.345
43.422,-0.365
43.43,-0.395
43.438,-0.355
43.445,-0.345
43.453,-0.355
43.461,-0.315
43.469,-0.345
43.477,-0.295
43.484,-0.285
43.492,-0.275
43.5,-0.245
43.508,-0.235
43.516,-0.245
43.523,-0.215
43.531,-0.195
43.539,-0.235
43.547,-0.145
43.555,-0.125
43.562,-0.175
43.57,-0.155
43.578,-0.155
43.586,-0.205
43.594,-0.195
43.602,-0.155
43.609,-0.215
43.617,-0.175
43.625,-0.145
43.633,-0.065
43.641,-0.205
43.648,-0.175
43.656,-0.125
43.664,-0.155
43.672,-0.155
43.68,-0.195
43.688,-0.155
43.695,-0.185
43.703,-0.185
43.711,-0.195
43.719,-0.205
43.727,-0.215
43.734,-0.195
43.742,-0.105
43.75,-0.155
43.758,-0.185
43.766,-0.145
43.773,-0.195
43.781,-0.155
43.789,-0.215
43.797,-0.175
43.805,-0.105
43.812,-0.175
43.82,-0.205
43.828,-0.135
43.836,-0.105
43.844,-0.145
43.852,-0.155
43.859,-0.035
43.867,-0.035
43.875,-0.075
43.883,-0.085
43.891,-0.115
43.898,-0.195
43.906,-0.185
43.914,-0.175
43.922,-0.215
43.93,-0.225
43.938,-0.225
43.945,-0.225
43.953,-0.205
43.961,-0.155
43.969,-0.365
43.977,-0.865
43.984,-0.435
43.992,1.115
44,2.645
44.008,2.955
44.016,2.595
44.023,0.965
44.031,-0.345
44.039,-0.295
44.047,-0.275
44.055,-0.345
44.062,-0.415
44.07,-0.375
44.078,-0.325
44.086,-0.335
44.094,-0.325
44.102,-0.355
44.109,-0.325
44.117,-0.275
44.125,-0.245
44.133,-0.265
44.141,-0.245
44.148,-0.205
44.156,-0.185
44.164,-0.155
44.172,-0.115
44.18,-0.135
44.188,-0.145
44.195,-0.155
44.203,-0.095
44.211,-0.105
44.219,-0.155
44.227,-0.165
44.234,-0.155
44.242,-0.155
44.25,-0.145
44.258,-0.135
44.266,-0.095
44.273,-0.095
44.281,-0.135
44.289,-0.145
44.297,-0.135
44.305,-0.175
44.312,-0.175
44.32,-0.175
44.328,-0.185
44.336,-0.155
44.344,-0.165
44.352,-0.135
44.359,-0.175
44.367,-0.125
44.375,-0.135
44.383,-0.145
44.391,-0.145
44.398,-0.155
44.406,-0.155
44.414,-0.175
44.422,-0.075
44.43,-0.155
44.438,-0.155
44.445,-0.105
44.453,-0.125
44.461,-0.075
44.469,-0.055
44.477,-0.055
44.484,-0.055
44.492,0.015
44.5,0.005
44.508,-0.095
44.516,-0.095
44.523,-0.155
44.531,-0.125
44.539,-0.125
44.547,-0.155
44.555,-0.215
44.562,-0.195
44.57,-0.165
44.578,-0.195
44.586,-0.125
44.594,-0.115
44.602,-0.475
44.609,-0.745
44.617,-0.045
44.625,1.505
44.633,2.625
44.641,2.775
44.648,2.315
44.656,0.695
44.664,-0.205
44.672,-0.205
44.68,-0.255
44.688,-0.325
44.695,-0.325
44.703,-0.335
44.711,-0.315
44.719,-0.315
44.727,-0.305
44.734,-0.295
44.742,-0.265
44.75,-0.245
44.758,-0.215
44.766,-0.195
44.773,-0.165
44.781,-0.205
44.789,-0.115
44.797,-0.105
44.805,-0.125
44.812,-0.105
44.82,-0.085
44.828,-0.105
44.836,-0.145
44.844,-0.135
44.852,-0.185
44.859,-0.125
44.867,-0.185
44.875,-0.185
44.883,-0.145
44.891,-0.095
44.898,-0.095
44.906,-0.135
44.914,-0.145
44.922,-0.145
44.93,-0.135
44.938,-0.185
44.945,-0.175
44.953,-0.115
44.961,-0.155
44.969,-0.145
44.977,-0.165
44.984,-0.145
44.992,-0.165
45,-0.095
45.008,-0.105
45.016,-0.095
45.023,-0.145
45.031,-0.115
45.039,-0.115
45.047,-0.135
45.055,-0.115
45.062,-0.095
45.07,-0.125
45.078,-0.145
45.086,-0.155
45.094,-0.115
45.102,-0.135
45.109,-0.135
45.117,-0.095
45.125,-0.075
45.133,-0.035
45.141,-0.075
45.148,-0.035
45.156,0.055
45.164,-0.035
45.172,-0.065
45.18,-0.105
45.188,-0.125
45.195,-0.115
45.203,-0.095
45.211,-0.185
45.219,-0.205
45.227,-0.165
45.234,-0.155
45.242,-0.205
45.25,-0.135
45.258,-0.185
45.266,-0.645
45.273,-0.655
45.281,0.465
45.289,2.065
45.297,2.805
45.305,2.575
45.312,1.375
45.32,-0.035
45.328,-0.245
45.336,-0.285
45.344,-0.275
45.352,-0.285
45.359,-0.345
45.367,-0.335
45.375,-0.295
45.383,-0.305
45.391,-0.285
45.398,-0.275
45.406,-0.265
45.414,-0.255
45.422,-0.185
45.43,-0.155
45.438,-0.155
45.445,-0.165
45.453,-0.095
45.461,-0.095
45.469,-0.115
45.477,-0.065
45.484,-0.075
45.492,-0.095
45.5,-0.095
45.508,-0.135
45.516,-0.145
45.523,-0.145
45.531,-0.155
45.539,-0.135
45.547,-0.115
45.555,-0.105
45.562,-0.095
45.57,-0.135
45.578,-0.135
45.586,-0.115
45.594,-0.155
45.602,-0.145
45.609,-0.135
45.617,-0.145
45.625,-0.135
45.633,-0.135
45.641,-0.085
45.648,-0.135
45.656,-0.125
45.664,-0.145
45.672,-0.095
45.68,-0.095
45.688,-0.145
45.695,-0.095
45.703,-0.145
45.711,-0.155
45.719,-0.105
45.727,-0.085
45.734,-0.115
45.742,-0.155
45.75,-0.145
45.758,-0.135
45.766,-0.145
45.773,-0.105
45.781,-0.065
45.789,-0.085
45.797,-0.095
45.805,0.005
45.812,0.005
45.82,0.025
45.828,-0.025
45.836,-0.045
45.844,-0.075
45.852,-0.085
45.859,-0.115
45.867,-0.145
45.875,-0.185
45.883,-0.155
45.891,-0.195
45.898,-0.145
45.906,-0.145
45.914,-0.135
45.922,-0.235
45.93,-0.715
45.938,-0.505
45.945,0.905
45.953,2.435
45.961,2.735
45.969,2.365
45.977,0.925
45.984,-0.175
45.992,-0.305
46,-0.235
46.008,-0.265
46.016,-0.325
46.023,-0.295
46.031,-0.295
46.039,-0.285
46.047,-0.275
46.055,-0.265
46.062,-0.275
46.07,-0.245
46.078,-0.225
46.086,-0.205
46.094,-0.205
46.102,-0.135
46.109,-0.105
46.117,-0.055
46.125,-0.115
46.133,-0.065
46.141,-0.075
46.148,-0.075
46.156,-0.135
46.164,-0.045
46.172,-0.085
46.18,-0.105
46.188,-0.155
46.195,-0.095
46.203,-0.115
46.211,-0.105
46.219,-0.105
46.227,-0.075
46.234,-0.075
46.242,-0.115
46.25,-0.125
46.258,-0.135
46.266,-0.125
46.273,-0.115
46.281,-0.135
46.289,-0.155
46.297,-0.145
46.305,-0.075
46.312,-0.115
46.32,-0.145
46.328,-0.125
46.336,-0.055
46.344,-0.115
46.352,-0.085
46.359,-0.085
46.367,-0.135
46.375,-0.095
46.383,-0.115
46.391,-0.125
46.398,-0.085
46.406,-0.125
46.414,-0.105
46.422,-0.115
46.43,-0.125
46.438,-0.105
46.445,-0.135
46.453,-0.155
46.461,-0.015
46.469,-0.085
46.477,-0.015
46.484,0.045
46.492,0.095
46.5,-0.015
46.508,-0.055
46.516,-0.045
46.523,-0.085
46.531,-0.125
46.539,-0.095
46.547,-0.185
46.555,-0.145
46.562,-0.165
46.57,-0.205
46.578,-0.095
46.586,-0.095
46.594,-0.295
46.602,-0.735
46.609,-0.295
46.617,1.165
46.625,2.555
46.633,2.705
46.641,2.405
46.648,0.755
46.656,-0.295
46.664,-0.305
46.672,-0.255
46.68,-0.315
46.688,-0.305
46.695,-0.315
46.703,-0.305
46.711,-0.295
46.719,-0.285
46.727,-0.215
46.734,-0.235
46.742,-0.255
46.75,-0.235
46.758,-0.195
46.766,-0.165
46.773,-0.215
46.781,-0.175
46.789,-0.085
46.797,-0.095
46.805,-0.135
46.812,-0.105
46.82,-0.105
46.828,-0.085
46.836,-0.085
46.844,-0.155
46.852,-0.135
46.859,-0.135
46.867,-0.115
46.875,-0.095
46.883,-0.105
46.891,-0.115
46.898,-0.105
46.906,-0.095
46.914,-0.085
46.922,-0.105
46.93,-0.175
46.938,-0.195
46.945,-0.145
46.953,-0.125
46.961,-0.115
46.969,-0.125
46.977,-0.145
46.984,-0.135
46.992,-0.115
47,-0.135
47.008,-0.115
47.016,-0.125
47.023,-0.125
47.031,-0.185
47.039,-0.115
47.047,-0.095
47.055,-0.115
47.062,-0.135
47.07,-0.165
47.078,-0.145
47.086,-0.155
47.094,-0.135
47.102,-0.155
47.109,-0.175
47.117,-0.115
47.125,-0.115
47.133,-0.075
47.141,-0.085
47.148,-0.055
47.156,0.055
47.164,-0.025
47.172,-0.065
47.18,-0.085
47.188,-0.055
47.195,-0.105
47.203,-0.125
47.211,-0.175
47.219,-0.175
47.227,-0.215
47.234,-0.195
47.242,-0.205
47.25,-0.165
47.258,-0.175
47.266,-0.725
47.273,-0.365
47.281,1.055
47.289,2.535
47.297,2.845
47.305,2.525
47.312,0.885
47.32,-0.325
47.328,-0.285
47.336,-0.265
47.344,-0.345
47.352,-0.325
47.359,-0.385
47.367,-0.325
47.375,-0.285
47.383,-0.265
47.391,-0.275
47.398,-0.285
47.406,-0.225
47.414,-0.205
47.422,-0.185
47.43,-0.175
47.438,-0.175
47.445,-0.135
47.453,-0.165
47.461,-0.105
47.469,-0.085
47.477,-0.125
47.484,-0.095
47.492,-0.095
47.5,-0.055
47.508,-0.155
47.516,-0.145
47.523,-0.125
47.531,-0.085
47.539,-0.075
47.547,-0.085
47.555,-0.085
47.562,-0.095
47.57,-0.115
47.578,-0.135
47.586,-0.125
47.594,-0.135
47.602,-0.125
47.609,-0.155
47.617,-0.135
47.625,-0.125
47.633,-0.125
47.641,-0.145
47.648,-0.145
47.656,-0.115
47.664,-0.115
47.672,-0.115
47.68,-0.115
47.688,-0.135
47.695,-0.115
47.703,-0.095
47.711,-0.135
47.719,-0.135
47.727,-0.115
47.734,-0.115
47.742,-0.135
47.75,-0.115
47.758,-0.075
47.766,-0.035
47.773,-0.055
47.781,-0.015
47.789,0.045
47.797,0.015
47.805,-0.045
47.812,-0.115
47.82,-0.115
47.828,-0.115
47.836,-0.115
47.844,-0.155
47.852,-0.185
47.859,-0.195
47.867,-0.185
47.875,-0.155
47.883,-0.125
47.891,-0.205
47.898,-0.715
47.906,-0.605
47.914,0.515
47.922,2.165
47.93,2.885
47.938,2.705
47.945,1.535
47.953,0.025
47.961,-0.285
47.969,-0.245
47.977,-0.265
47.984,-0.325
47.992,-0.315
48,-0.345
48.008,-0.305
48.016,-0.335
48.023,-0.295
48.031,-0.245
48.039,-0.265
48.047,-0.255
48.055,-0.235
48.062,-0.175
48.07,-0.155
48.078,-0.155
48.086,-0.135
48.094,-0.125
48.102,-0.135
48.109,-0.065
48.117,-0.105
48.125,-0.135
48.133,-0.105
48.141,-0.165
48.148,-0.185
48.156,-0.185
48.164,-0.175
48.172,-0.145
48.18,-0.145
48.188,-0.125
48.195,-0.165
48.203,-0.145
48.211,-0.165
48.219,-0.145
48.227,-0.155
48.234,-0.165
48.242,-0.155
48.25,-0.145
48.258,-0.155
48.266,-0.165
48.273,-0.105
48.281,-0.165
48.289,-0.175
48.297,-0.155
48.305,-0.145
48.312,-0.135
48.32,-0.145
48.328,-0.105
48.336,-0.145
48.344,-0.195
48.352,-0.135
48.359,-0.145
48.367,-0.155
48.375,-0.155
48.383,-0.055
48.391,-0.055
48.398,-0.095
48.406,-0.025
48.414,0.045
48.422,-0.035
48.43,-0.075
48.438,-0.125
48.445,-0.125
48.453,-0.135
48.461,-0.185
48.469,-0.165
48.477,-0.185
48.484,-0.195
48.492,-0.225
48.5,-0.245
48.508,-0.165
48.516,-0.165
48.523,-0.525
48.531,-0.795
48.539,-0.165
48.547,1.525
48.555,2.675
48.562,2.805
48.57,2.235
48.578,0.645
48.586,-0.255
48.594,-0.245
48.602,-0.265
48.609,-0.365
48.617,-0.355
48.625,-0.355
48.633,-0.355
48.641,-0.335
48.648,-0.325
48.656,-0.285
48.664,-0.305
48.672,-0.265
48.68,-0.235
48.688,-0.245
48.695,-0.205
48.703,-0.195
48.711,-0.165
48.719,-0.165
48.727,-0.105
48.734,-0.105
48.742,-0.085
48.75,-0.115
48.758,-0.115
48.766,-0.155
48.773,-0.165
48.781,-0.145
48.789,-0.175
48.797,-0.165
48.805,-0.145
48.812,-0.135
48.82,-0.125
48.828,-0.145
48.836,-0.115
48.844,-0.185
48.852,-0.155
48.859,-0.185
48.867,-0.205
48.875,-0.155
48.883,-0.175
48.891,-0.205
48.898,-0.135
48.906,-0.095
48.914,-0.145
48.922,-0.175
48.93,-0.165
48.938,-0.165
48.945,-0.145
48.953,-0.145
48.961,-0.165
48.969,-0.165
48.977,-0.145
48.984,-0.155
48.992,-0.185
49,-0.135
49.008,-0.135
49.016,-0.105
49.023,-0.065
49.031,-0.115
49.039,-0.065
49.047,0.025
49.055,0.015
49.062,-0.055
49.07,-0.135
49.078,-0.155
49.086,-0.105
49.094,-0.145
49.102,-0.165
49.109,-0.225
49.117,-0.255
49.125,-0.235
49.133,-0.155
49.141,-0.205
49.148,-0.215
49.156,-0.265
49.164,-0.785
49.172,-0.555
49.18,0.805
49.188,2.365
49.195,2.675
49.203,2.385
49.211,1.135
49.219,-0.155
49.227,-0.345
49.234,-0.245
49.242,-0.305
49.25,-0.355
49.258,-0.375
49.266,-0.355
49.273,-0.375
49.281,-0.295
49.289,-0.305
49.297,-0.265
49.305,-0.255
49.312,-0.245
49.32,-0.255
49.328,-0.225
49.336,-0.215
49.344,-0.175
49.352,-0.175
49.359,-0.145
49.367,-0.145
49.375,-0.155
49.383,-0.145
49.391,-0.125
49.398,-0.165
49.406,-0.155
49.414,-0.155
49.422,-0.125
49.43,-0.125
49.438,-0.115
49.445,-0.115
49.453,-0.115
49.461,-0.105
49.469,-0.125
49.477,-0.125
49.484,-0.145
49.492,-0.165
49.5,-0.135
49.508,-0.185
49.516,-0.205
49.523,-0.155
49.531,-0.175
49.539,-0.145
49.547,-0.125
49.555,-0.145
49.562,-0.135
49.57,-0.185
49.578,-0.135
49.586,-0.175
49.594,-0.155
49.602,-0.165
49.609,-0.175
49.617,-0.215
49.625,-0.125
49.633,-0.165
49.641,-0.225
49.648,-0.065
49.656,-0.055
49.664,-0.085
49.672,-0.015
49.68,0.025
49.688,-0.065
49.695,-0.135
49.703,-0.145
49.711,-0.155
49.719,-0.145
49.727,-0.195
49.734,-0.195
49.742,-0.225
49.75,-0.275
49.758,-0.225
49.766,-0.195
49.773,-0.165
49.781,-0.445
49.789,-0.875
49.797,-0.335
49.805,1.275
49.812,2.665
49.82,2.845
49.828,2.595
49.836,0.925
49.844,-0.345
49.852,-0.345
49.859,-0.265
49.867,-0.325
49.875,-0.365
49.883,-0.385
49.891,-0.395
49.898,-0.335
49.906,-0.335
49.914,-0.335
49.922,-0.305
49.93,-0.275
49.938,-0.275
49.945,-0.295
49.953,-0.235
49.961,-0.215
49.969,-0.195
49.977,-0.175
49.984,-0.125
49.992,-0.115
50,-0.145
50.008,-0.125
50.016,-0.135
50.023,-0.165
50.031,-0.175
50.039,-0.205
50.047,-0.175
50.055,-0.175
50.062,-0.125
50.07,-0.115
50.078,-0.145
50.086,-0.165
50.094,-0.145
50.102,-0.135
50.109,-0.185
50.117,-0.225
50.125,-0.165
50.133,-0.155
50.141,-0.175
50.148,-0.175
50.156,-0.175
50.164,-0.185
50.172,-0.175
50.18,-0.135
50.188,-0.225
50.195,-0.185
50.203,-0.165
50.211,-0.175
50.219,-0.185
50.227,-0.125
50.234,-0.125
50.242,-0.215
50.25,-0.195
50.258,-0.165
50.266,-0.105
50.273,-0.075
50.281,-0.075
50.289,-0.095
50.297,0.005
50.305,-0.045
50.312,-0.075
50.32,-0.125
50.328,-0.155
50.336,-0.195
50.344,-0.195
50.352,-0.185
50.359,-0.215
50.367,-0.235
50.375,-0.265
50.383,-0.175
50.391,-0.175
50.398,-0.195
50.406,-0.585
50.414,-0.865
50.422,0.005
50.43,1.735
50.438,2.755
50.445,2.745
50.453,2.125
50.461,0.405
50.469,-0.275
50.477,-0.225
50.484,-0.245
50.492,-0.345
50.5,-0.365
50.508,-0.355
50.516,-0.365
50.523,-0.345
50.531,-0.325
50.539,-0.285
50.547,-0.265
50.555,-0.235
50.562,-0.235
50.57,-0.235
50.578,-0.195
50.586,-0.165
50.594,-0.165
50.602,-0.125
50.609,-0.105
50.617,-0.115
50.625,-0.135
50.633,-0.115
50.641,-0.135
50.648,-0.145
50.656,-0.155
50.664,-0.185
50.672,-0.215
50.68,-0.155
50.688,-0.145
50.695,-0.125
50.703,-0.135
50.711,-0.195
50.719,-0.145
50.727,-0.175
50.734,-0.145
50.742,-0.155
50.75,-0.145
50.758,-0.185
50.766,-0.135
50.773,-0.195
50.781,-0.135
50.789,-0.135
50.797,-0.175
50.805,-0.155
50.812,-0.155
50.82,-0.135
50.828,-0.155
50.836,-0.195
50.844,-0.135
50.852,-0.145
50.859,-0.145
50.867,-0.165
50.875,-0.115
50.883,-0.095
50.891,-0.065
50.898,-0.085
50.906,0.025
50.914,-0.015
50.922,-0.075
50.93,-0.175
50.938,-0.105
50.945,-0.135
50.953,-0.165
50.961,-0.175
50.969,-0.225
50.977,-0.245
50.984,-0.225
50.992,-0.235
51,-0.195
51.008,-0.205
51.016,-0.425
51.023,-0.875
51.031,-0.525
51.039,0.835
51.047,2.465
51.055,2.945
51.062,2.645
51.07,1.305
51.078,-0.135
51.086,-0.305
51.094,-0.295
51.102,-0.355
51.109,-0.375
51.117,-0.325
51.125,-0.355
51.133,-0.345
51.141,-0.315
51.148,-0.315
51.156,-0.315
51.164,-0.305
51.172,-0.245
51.18,-0.255
51.188,-0.245
51.195,-0.185
51.203,-0.145
51.211,-0.145
51.219,-0.135
51.227,-0.145
51.234,-0.105
51.242,-0.105
51.25,-0.075
51.258,-0.135
51.266,-0.135
51.273,-0.185
51.281,-0.205
51.289,-0.185
51.297,-0.165
51.305,-0.115
51.312,-0.115
51.32,-0.135
51.328,-0.115
51.336,-0.145
51.344,-0.175
51.352,-0.155
51.359,-0.165
51.367,-0.145
51.375,-0.175
51.383,-0.175
51.391,-0.155
51.398,-0.145
51.406,-0.145
51.414,-0.155
51.422,-0.125
51.43,-0.155
51.438,-0.165
51.445,-0.155
51.453,-0.155
51.461,-0.135
51.469,-0.155
51.477,-0.185
51.484,-0.125
51.492,-0.105
51.5,-0.095
51.508,-0.085
51.516,-0.095
51.523,-0.035
51.531,0.035
51.539,-0.005
51.547,-0.045
51.555,-0.095
51.562,-0.145
51.57,-0.135
51.578,-0.135
51.586,-0.175
51.594,-0.185
51.602,-0.225
51.609,-0.175
51.617,-0.215
51.625,-0.175
51.633,-0.155
51.641,-0.705
51.648,-0.785
51.656,0.315
51.664,2.165
51.672,2.895
51.68,2.595
51.688,1.225
51.695,-0.145
51.703,-0.315
51.711,-0.305
51.719,-0.305
51.727,-0.305
51.734,-0.315
51.742,-0.315
51.75,-0.295
51.758,-0.285
51.766,-0.265
51.773,-0.265
51.781,-0.245
51.789,-0.225
51.797,-0.215
51.805,-0.195
51.812,-0.225
51.82,-0.145
51.828,-0.135
51.836,-0.135
51.844,-0.125
51.852,-0.065
51.859,-0.085
51.867,-0.105
51.875,-0.185
51.883,-0.145
51.891,-0.125
51.898,-0.135
51.906,-0.125
51.914,-0.115
51.922,-0.075
51.93,-0.065
51.938,-0.085
51.945,-0.105
51.953,-0.155
51.961,-0.105
51.969,-0.135
51.977,-0.165
51.984,-0.135
51.992,-0.115
52,-0.135
52.008,-0.135
52.016,-0.125
52.023,-0.135
52.031,-0.175
52.039,-0.145
52.047,-0.135
52.055,-0.145
52.062,-0.155
52.07,-0.145
52.078,-0.125
52.086,-0.135
52.094,-0.135
52.102,-0.125
52.109,-0.125
52.117,-0.105
52.125,-0.085
52.133,-0.085
52.141,0.035
52.148,0.015
52.156,-0.065
52.164,-0.095
52.172,-0.135
52.18,-0.145
52.188,-0.125
52.195,-0.145
52.203,-0.185
52.211,-0.225
52.219,-0.255
52.227,-0.215
52.234,-0.135
52.242,-0.145
52.25,-0.335
52.258,-0.915
52.266,-0.545
52.273,0.695
52.281,2.345
52.289,2.835
52.297,2.585
52.305,1.275
52.312,-0.195
52.32,-0.365
52.328,-0.255
52.336,-0.295
52.344,-0.345
52.352,-0.355
52.359,-0.305
52.367,-0.345
52.375,-0.345
52.383,-0.295
52.391,-0.265
52.398,-0.285
52.406,-0.285
52.414,-0.225
52.422,-0.175
52.43,-0.205
52.438,-0.185
52.445,-0.165
52.453,-0.165
52.461,-0.145
52.469,-0.115
52.477,-0.135
52.484,-0.155
52.492,-0.155
52.5,-0.175
52.508,-0.205
52.516,-0.205
52.523,-0.165
52.531,-0.105
52.539,-0.105
52.547,-0.095
52.555,-0.135
52.562,-0.155
52.57,-0.145
52.578,-0.135
52.586,-0.145
52.594,-0.185
52.602,-0.185
52.609,-0.135
52.617,-0.175
52.625,-0.155
52.633,-0.135
52.641,-0.175
52.648,-0.155
52.656,-0.155
52.664,-0.145
52.672,-0.135
52.68,-0.155
52.688,-0.185
52.695,-0.185
52.703,-0.105
52.711,-0.145
52.719,-0.065
52.727,-0.085
52.734,-0.095
52.742,-0.055
52.75,0.015
52.758,0.005
52.766,-0.085
52.773,-0.165
52.781,-0.105
52.789,-0.115
52.797,-0.125
52.805,-0.205
52.812,-0.215
52.82,-0.205
52.828,-0.175
52.836,-0.195
52.844,-0.135
52.852,-0.165
52.859,-0.745
52.867,-0.825
52.875,0.135
52.883,1.845
52.891,2.735
52.898,2.695
52.906,1.885
52.914,0.295
52.922,-0.235
52.93,-0.225
52.938,-0.255
52.945,-0.305
52.953,-0.315
52.961,-0.285
52.969,-0.265
52.977,-0.275
52.984,-0.285
52.992,-0.265
53,-0.245
53.008,-0.245
53.016,-0.195
53.023,-0.185
53.031,-0.175
53.039,-0.135
53.047,-0.135
53.055,-0.115
53.062,-0.105
53.07,-0.095
53.078,-0.115
53.086,-0.115
53.094,-0.125
53.102,-0.145
53.109,-0.175
53.117,-0.195
53.125,-0.205
53.133,-0.145
53.141,-0.145
53.148,-0.115
53.156,-0.145
53.164,-0.165
53.172,-0.125
53.18,-0.135
53.188,-0.135
53.195,-0.145
53.203,-0.135
53.211,-0.155
53.219,-0.135
53.227,-0.185
53.234,-0.145
53.242,-0.135
53.25,-0.165
53.258,-0.165
53.266,-0.135
53.273,-0.115
53.281,-0.185
53.289,-0.145
53.297,-0.145
53.305,-0.135
53.312,-0.175
53.32,-0.135
53.328,-0.085
53.336,-0.075
53.344,-0.105
53.352,-0.075
53.359,0.035
53.367,-0.015
53.375,-0.105
53.383,-0.125
53.391,-0.135
53.398,-0.165
53.406,-0.165
53.414,-0.225
53.422,-0.235
53.43,-0.285
53.438,-0.245
53.445,-0.205
53.453,-0.195
53.461,-0.235
53.469,-0.905
53.477,-0.775
53.484,0.505
53.492,2.325
53.5,2.935
53.508,2.605
53.516,1.235
53.523,-0.165
53.531,-0.315
53.539,-0.285
53.547,-0.315
53.555,-0.355
53.562,-0.425
53.57,-0.405
53.578,-0.335
53.586,-0.315
53.594,-0.335
53.602,-0.335
53.609,-0.305
53.617,-0.325
53.625,-0.275
53.633,-0.215
53.641,-0.205
53.648,-0.235
53.656,-0.175
53.664,-0.185
53.672,-0.115
53.68,-0.165
53.688,-0.155
53.695,-0.165
53.703,-0.175
53.711,-0.175
53.719,-0.205
53.727,-0.235
53.734,-0.205
53.742,-0.175
53.75,-0.145
53.758,-0.185
53.766,-0.125
53.773,-0.155
53.781,-0.195
53.789,-0.185
53.797,-0.195
53.805,-0.205
53.812,-0.185
53.82,-0.215
53.828,-0.185
53.836,-0.155
53.844,-0.185
53.852,-0.165
53.859,-0.155
53.867,-0.185
53.875,-0.165
53.883,-0.185
53.891,-0.165
53.898,-0.205
53.906,-0.185
53.914,-0.185
53.922,-0.185
53.93,-0.145
53.938,-0.115
53.945,-0.075
53.953,-0.105
53.961,-0.045
53.969,-0.025
53.977,-0.095
53.984,-0.115
53.992,-0.145
54,-0.135
54.008,-0.215
54.016,-0.205
54.023,-0.235
54.031,-0.265
54.039,-0.235
54.047,-0.185
54.055,-0.195
54.062,-0.195
54.07,-0.375
54.078,-0.935
54.086,-0.705
54.094,0.635
54.102,2.355
54.109,2.855
54.117,2.485
54.125,0.825
54.133,-0.315
54.141,-0.335
54.148,-0.335
54.156,-0.345
54.164,-0.365
54.172,-0.375
54.18,-0.375
54.188,-0.335
54.195,-0.375
54.203,-0.345
54.211,-0.295
54.219,-0.305
54.227,-0.255
54.234,-0.275
54.242,-0.255
54.25,-0.255
54.258,-0.195
54.266,-0.175
54.273,-0.175
54.281,-0.175
54.289,-0.175
54.297,-0.185
54.305,-0.165
54.312,-0.255
54.32,-0.235
54.328,-0.215
54.336,-0.205
54.344,-0.155
54.352,-0.165
54.359,-0.155
54.367,-0.135
54.375,-0.135
54.383,-0.165
54.391,-0.185
54.398,-0.185
54.406,-0.225
54.414,-0.195
54.422,-0.155
54.43,-0.185
54.438,-0.195
54.445,-0.185
54.453,-0.165
54.461,-0.235
54.469,-0.205
54.477,-0.195
54.484,-0.145
54.492,-0.185
54.5,-0.235
54.508,-0.195
54.516,-0.225
54.523,-0.175
54.531,-0.185
54.539,-0.225
54.547,-0.185
54.555,-0.145
54.562,-0.135
54.57,-0.125
54.578,-0.185
54.586,-0.005
54.594,-0.035
54.602,-0.155
54.609,-0.145
54.617,-0.165
54.625,-0.155
54.633,-0.185
54.641,-0.215
54.648,-0.235
54.656,-0.265
54.664,-0.255
54.672,-0.215
54.68,-0.235
54.688,-0.235
54.695,-0.485
54.703,-0.925
54.711,-0.305
54.719,1.225
54.727,2.605
54.734,2.705
54.742,2.245
54.75,0.465
54.758,-0.405
54.766,-0.335
54.773,-0.305
54.781,-0.365
54.789,-0.385
54.797,-0.385
54.805,-0.375
54.812,-0.375
54.82,-0.335
54.828,-0.345
54.836,-0.355
54.844,-0.275
54.852,-0.255
54.859,-0.245
54.867,-0.245
54.875,-0.215
54.883,-0.185
54.891,-0.175
54.898,-0.205
54.906,-0.165
54.914,-0.165
54.922,-0.165
54.93,-0.175
54.938,-0.245
54.945,-0.215
54.953,-0.205
54.961,-0.155
54.969,-0.135
54.977,-0.115
54.984,-0.095
54.992,-0.135
55,-0.175
55.008,-0.165
55.016,-0.135
55.023,-0.145
55.031,-0.175
55.039,-0.175
55.047,-0.165
55.055,-0.145
55.062,-0.195
55.07,-0.205
55.078,-0.165
55.086,-0.185
55.094,-0.165
55.102,-0.135
55.109,-0.165
55.117,-0.205
55.125,-0.155
55.133,-0.145
55.141,-0.165
55.148,-0.175
55.156,-0.175
55.164,-0.125
55.172,-0.085
55.18,-0.105
55.188,-0.145
55.195,-0.025
55.203,0.005
55.211,-0.045
55.219,-0.085
55.227,-0.095
55.234,-0.115
55.242,-0.175
55.25,-0.175
55.258,-0.205
55.266,-0.275
55.273,-0.255
55.281,-0.225
55.289,-0.145
55.297,-0.185
55.305,-0.395
55.312,-0.925
55.32,-0.445
55.328,0.985
55.336,2.495
55.344,2.925
55.352,2.605
55.359,1.095
55.367,-0.215
55.375,-0.285
55.383,-0.295
55.391,-0.315
55.398,-0.325
55.406,-0.345
55.414,-0.335
55.422,-0.335
55.43,-0.335
55.438,-0.265
55.445,-0.275
55.453,-0.295
55.461,-0.255
55.469,-0.195
55.477,-0.185
55.484,-0.165
55.492,-0.165
55.5,-0.135
55.508,-0.165
55.516,-0.115
55.523,-0.125
55.531,-0.115
55.539,-0.135
55.547,-0.175
55.555,-0.195
55.562,-0.175
55.57,-0.185
55.578,-0.185
55.586,-0.135
55.594,-0.095
55.602,-0.095
55.609,-0.105
55.617,-0.125
55.625,-0.115
55.633,-0.125
55.641,-0.145
55.648,-0.115
55.656,-0.135
55.664,-0.125
55.672,-0.135
55.68,-0.115
55.688,-0.145
55.695,-0.125
55.703,-0.105
55.711,-0.105
55.719,-0.125
55.727,-0.115
55.734,-0.145
55.742,-0.115
55.75,-0.095
55.758,-0.115
55.766,-0.115
55.773,-0.065
55.781,-0.055
55.789,-0.055
55.797,-0.015
55.805,0.035
55.812,0.005
55.82,-0.065
55.828,-0.035
55.836,-0.115
55.844,-0.075
55.852,-0.115
55.859,-0.165
55.867,-0.175
55.875,-0.195
55.883,-0.185
55.891,-0.195
55.898,-0.115
55.906,-0.215
55.914,-0.845
55.922,-0.685
55.93,0.645
55.938,2.365
55.945,2.935
55.953,2.755
55.961,1.585
55.969,0.035
55.977,-0.275
55.984,-0.255
55.992,-0.275
56,-0.315
56.008,-0.355
56.016,-0.275
56.023,-0.305
56.031,-0.295
56.039,-0.265
56.047,-0.255
56.055,-0.255
56.062,-0.245
56.07,-0.215
56.078,-0.185
56.086,-0.165
56.094,-0.145
56.102,-0.135
56.109,-0.125
56.117,-0.115
56.125,-0.065
56.133,-0.075
56.141,-0.095
56.148,-0.115
56.156,-0.165
56.164,-0.165
56.172,-0.195
56.18,-0.155
56.188,-0.135
56.195,-0.105
56.203,-0.115
56.211,-0.115
56.219,-0.105
56.227,-0.105
56.234,-0.135
56.242,-0.105
56.25,-0.105
56.258,-0.125
56.266,-0.145
56.273,-0.125
56.281,-0.135
56.289,-0.145
56.297,-0.095
56.305,-0.095
56.312,-0.135
56.32,-0.115
56.328,-0.095
56.336,-0.105
56.344,-0.115
56.352,-0.105
56.359,-0.175
56.367,-0.095
56.375,-0.175
56.383,-0.125
56.391,-0.055
56.398,-0.045
56.406,-0.065
56.414,-0.045
56.422,0.065
56.43,0.065
56.438,-0.035
56.445,-0.075
56.453,-0.135
56.461,-0.085
56.469,-0.125
56.477,-0.125
56.484,-0.165
56.492,-0.215
56.5,-0.175
56.508,-0.175
56.516,-0.165
56.523,-0.185
56.531,-0.705
56.539,-0.815
56.547,0.385
56.555,2.215
56.562,2.865
56.57,2.575
56.578,1.095
56.586,-0.155
56.594,-0.285
56.602,-0.315
56.609,-0.315
56.617,-0.335
56.625,-0.345
56.633,-0.325
56.641,-0.305
56.648,-0.285
56.656,-0.285
56.664,-0.255
56.672,-0.245
56.68,-0.225
56.688,-0.225
56.695,-0.205
56.703,-0.215
56.711,-0.125
56.719,-0.125
56.727,-0.155
56.734,-0.125
56.742,-0.105
56.75,-0.105
56.758,-0.125
56.766,-0.155
56.773,-0.145
56.781,-0.185
56.789,-0.155
56.797,-0.175
56.805,-0.115
56.812,-0.115
56.82,-0.085
56.828,-0.075
56.836,-0.155
56.844,-0.095
56.852,-0.105
56.859,-0.115
56.867,-0.145
56.875,-0.135
56.883,-0.155
56.891,-0.105
56.898,-0.155
56.906,-0.165
56.914,-0.115
56.922,-0.105
56.93,-0.135
56.938,-0.145
56.945,-0.115
56.953,-0.125
56.961,-0.135
56.969,-0.185
56.977,-0.105
56.984,-0.145
56.992,-0.135
57,-0.115
57.008,-0.155
57.016,-0.125
57.023,-0.075
57.031,-0.095
57.039,-0.085
57.047,-0.025
57.055,0.075
57.062,-0.005
57.07,-0.075
57.078,-0.125
57.086,-0.095
57.094,-0.155
57.102,-0.145
57.109,-0.215
57.117,-0.215
57.125,-0.185
57.133,-0.205
57.141,-0.195
57.148,-0.135
57.156,-0.295
57.164,-0.855
57.172,-0.455
57.18,0.945
57.188,2.495
57.195,2.785
57.203,2.485
57.211,0.955
57.219,-0.275
57.227,-0.335
57.234,-0.275
57.242,-0.355
57.25,-0.335
57.258,-0.365
57.266,-0.365
57.273,-0.305
57.281,-0.295
57.289,-0.325
57.297,-0.285
57.305,-0.255
57.312,-0.285
57.32,-0.235
57.328,-0.205
57.336,-0.205
57.344,-0.175
57.352,-0.165
57.359,-0.155
57.367,-0.155
57.375,-0.145
57.383,-0.185
57.391,-0.205
57.398,-0.215
57.406,-0.215
57.414,-0.245
57.422,-0.195
57.43,-0.105
57.438,-0.115
57.445,-0.105
57.453,-0.075
57.461,-0.125
57.469,-0.135
57.477,-0.135
57.484,-0.155
57.492,-0.165
57.5,-0.155
57.508,-0.185
57.516,-0.165
57.523,-0.185
57.531,-0.185
57.539,-0.155
57.547,-0.165
57.555,-0.155
57.562,-0.145
57.57,-0.175
57.578,-0.165
57.586,-0.165
57.594,-0.215
57.602,-0.195
57.609,-0.125
57.617,-0.135
57.625,-0.105
57.633,-0.085
57.641,-0.105
57.648,-0.095
57.656,-0.055
57.664,-0.025
57.672,-0.055
57.68,-0.075
57.688,-0.105
57.695,-0.155
57.703,-0.155
57.711,-0.175
57.719,-0.205
57.727,-0.205
57.734,-0.205
57.742,-0.195
57.75,-0.205
57.758,-0.165
57.766,-0.395
57.773,-0.925
57.781,-0.455
57.789,1.175
57.797,2.685
57.805,2.855
57.812,2.295
57.82,0.345
57.828,-0.375
57.836,-0.305
57.844,-0.305
57.852,-0.335
57.859,-0.335
57.867,-0.355
57.875,-0.385
57.883,-0.325
57.891,-0.315
57.898,-0.275
57.906,-0.265
57.914,-0.245
57.922,-0.245
57.93,-0.205
57.938,-0.185
57.945,-0.195
57.953,-0.195
57.961,-0.125
57.969,-0.125
57.977,-0.135
57.984,-0.185
57.992,-0.155
58,-0.125
58.008,-0.155
58.016,-0.175
58.023,-0.215
58.031,-0.155
58.039,-0.135
58.047,-0.125
58.055,-0.115
58.062,-0.105
58.07,-0.105
58.078,-0.135
58.086,-0.135
58.094,-0.165
58.102,-0.185
58.109,-0.125
58.117,-0.175
58.125,-0.165
58.133,-0.125
58.141,-0.115
58.148,-0.145
58.156,-0.145
58.164,-0.125
58.172,-0.185
58.18,-0.125
58.188,-0.115
58.195,-0.115
58.203,-0.145
58.211,-0.135
58.219,-0.115
58.227,-0.095
58.234,-0.055
58.242,-0.045
58.25,-0.045
58.258,0.055
58.266,-0.015
58.273,-0.075
58.281,-0.125
58.289,-0.085
58.297,-0.095
58.305,-0.125
58.312,-0.185
58.32,-0.235
58.328,-0.185
58.336,-0.185
58.344,-0.195
58.352,-0.165
58.359,-0.265
58.367,-0.895
58.375,-0.785
58.383,0.465
58.391,2.375
58.398,3.025
58.406,2.715
58.414,1.485
58.422,-0.045
58.43,-0.255
58.438,-0.225
58.445,-0.295
58.453,-0.335
58.461,-0.335
58.469,-0.315
58.477,-0.315
58.484,-0.295
58.492,-0.285
58.5,-0.295
58.508,-0.265
58.516,-0.205
58.523,-0.175
58.531,-0.195
58.539,-0.175
58.547,-0.145
58.555,-0.145
58.562,-0.135
58.57,-0.125
58.578,-0.115
58.586,-0.105
58.594,-0.125
58.602,-0.165
58.609,-0.185
58.617,-0.215
58.625,-0.225
58.633,-0.185
58.641,-0.155
58.648,-0.115
58.656,-0.105
58.664,-0.165
58.672,-0.135
58.68,-0.115
58.688,-0.125
58.695,-0.135
58.703,-0.145
58.711,-0.165
58.719,-0.135
58.727,-0.165
58.734,-0.135
58.742,-0.135
58.75,-0.105
58.758,-0.145
58.766,-0.135
58.773,-0.115
58.781,-0.135
58.789,-0.145
58.797,-0.135
58.805,-0.095
58.812,-0.105
58.82,-0.055
58.828,-0.075
58.836,-0.115
58.844,-0.025
58.852,0.065
58.859,-0.005
58.867,-0.065
58.875,-0.075
58.883,-0.095
58.891,-0.135
58.898,-0.175
58.906,-0.165
58.914,-0.155
58.922,-0.185
58.93,-0.175
58.938,-0.195
58.945,-0.185
58.953,-0.215
58.961,-0.885
58.969,-0.785
58.977,0.555
58.984,2.205
58.992,2.895
59,2.675
59.008,1.425
59.016,-0.025
59.023,-0.285
59.031,-0.225
59.039,-0.285
59.047,-0.335
59.055,-0.385
59.062,-0.385
59.07,-0.285
59.078,-0.315
59.086,-0.295
59.094,-0.265
59.102,-0.255
59.109,-0.265
59.117,-0.225
59.125,-0.185
59.133,-0.175
59.141,-0.185
59.148,-0.165
59.156,-0.135
59.164,-0.125
59.172,-0.095
59.18,-0.115
59.188,-0.155
59.195,-0.145
59.203,-0.185
59.211,-0.185
59.219,-0.225
59.227,-0.155
59.234,-0.145
59.242,-0.135
59.25,-0.135
59.258,-0.115
59.266,-0.125
59.273,-0.145
59.281,-0.115
59.289,-0.155
59.297,-0.155
59.305,-0.145
59.312,-0.145
59.32,-0.175
59.328,-0.125
59.336,-0.135
59.344,-0.185
59.352,-0.135
59.359,-0.115
59.367,-0.135
59.375,-0.155
59.383,-0.165
59.391,-0.125
59.398,-0.095
59.406,-0.155
59.414,-0.155
59.422,-0.095
59.43,-0.045
59.438,-0.105
59.445,-0.105
59.453,0.045
59.461,0.035
59.469,-0.045
59.477,-0.095
59.484,-0.085
59.492,-0.115
59.5,-0.145
59.508,-0.165
59.516,-0.205
59.523,-0.225
59.531,-0.195
59.539,-0.185
59.547,-0.205
59.555,-0.215
59.562,-0.595
59.57,-0.855
59.578,-0.335
59.586,1.225
59.594,2.575
59.602,2.685
59.609,2.125
59.617,0.495
59.625,-0.275
59.633,-0.285
59.641,-0.325
59.648,-0.345
59.656,-0.325
59.664,-0.345
59.672,-0.305
59.68,-0.305
59.688,-0.355
59.695,-0.285
59.703,-0.255
59.711,-0.295
59.719,-0.255
59.727,-0.185
59.734,-0.185
59.742,-0.185
59.75,-0.185
59.758,-0.165
59.766,-0.135
59.773,-0.105
59.781,-0.135
59.789,-0.165
59.797,-0.135
59.805,-0.175
59.812,-0.195
59.82,-0.185
59.828,-0.155
59.836,-0.135
59.844,-0.145
59.852,-0.075
59.859,-0.095
59.867,-0.145
59.875,-0.125
59.883,-0.155
59.891,-0.155
59.898,-0.195
59.906,-0.135
59.914,-0.125
59.922,-0.145
59.93,-0.155
59.938,-0.155
59.945,-0.125
59.953,-0.125
59.961,-0.155
59.969,-0.145
59.977,-0.175
59.984,-0.145
59.992,-0.165
